# RPA macroscopic dielectric function without local fields
# Tolerance =  0.0200 0.0200
# npweps  = 59
# npwwfn  = 137
# nbands  = 6
# loband  = 2
# nkibz   = 64
# nkbz    = 64
# Lorentzian broadening =  0.1500 [eV]
# List of q-points for the optical limit:
# q =  0.938821, 0.000000, 0.000000, [Reduced coords] 
# q =  0.000000, 0.938821, 0.000000, [Reduced coords] 
# q =  0.000000, 0.000000, 0.938821, [Reduced coords] 
# q =  0.000000, 0.813043, 0.813043, [Reduced coords] 
# q =  0.813043, 0.000000, 0.813043, [Reduced coords] 
# q =  0.813043, 0.813043, 0.000000, [Reduced coords] 
# omega [eV]    RE(eps(q=1)) IM(eps(q=1) RE(eps(q=2) ) ... DOS   IDOS
  0.000   17.3702    0.0000   17.1047    0.0000   13.9472    0.0000   13.2555    0.0000   16.4291    0.0000   16.8264    0.0000    0.0000    0.0000
  0.020   17.3708    0.0084   17.1052    0.0082   13.9476    0.0060   13.2559    0.0054   16.4296    0.0079   16.8270    0.0081    0.0000    0.0000
  0.040   17.3724    0.0168   17.1068    0.0165   13.9488    0.0121   13.2569    0.0108   16.4312    0.0157   16.8286    0.0162    0.0000    0.0000
  0.060   17.3752    0.0252   17.1095    0.0247   13.9508    0.0181   13.2587    0.0162   16.4338    0.0236   16.8312    0.0243    0.0000    0.0000
  0.080   17.3791    0.0336   17.1134    0.0329   13.9536    0.0242   13.2612    0.0217   16.4374    0.0315   16.8350    0.0324    0.0000    0.0000
  0.100   17.3841    0.0421   17.1183    0.0412   13.9572    0.0303   13.2645    0.0271   16.4421    0.0393   16.8398    0.0405    0.0000    0.0000
  0.120   17.3902    0.0505   17.1243    0.0495   13.9616    0.0364   13.2684    0.0325   16.4478    0.0473   16.8457    0.0486    0.0000    0.0000
  0.140   17.3975    0.0590   17.1313    0.0578   13.9668    0.0425   13.2731    0.0380   16.4546    0.0552   16.8527    0.0568    0.0000    0.0000
  0.160   17.4058    0.0675   17.1395    0.0661   13.9728    0.0486   13.2785    0.0435   16.4624    0.0631   16.8607    0.0650    0.0000    0.0000
  0.180   17.4153    0.0761   17.1488    0.0745   13.9797    0.0547   13.2846    0.0489   16.4713    0.0711   16.8698    0.0732    0.0000    0.0000
  0.200   17.4259    0.0847   17.1592    0.0829   13.9873    0.0609   13.2914    0.0544   16.4812    0.0791   16.8801    0.0815    0.0000    0.0000
  0.220   17.4377    0.0933   17.1707    0.0913   13.9958    0.0671   13.2990    0.0600   16.4922    0.0872   16.8914    0.0897    0.0000    0.0000
  0.240   17.4506    0.1019   17.1834    0.0998   14.0051    0.0733   13.3073    0.0655   16.5043    0.0953   16.9038    0.0981    0.0000    0.0000
  0.260   17.4647    0.1106   17.1971    0.1083   14.0152    0.0795   13.3163    0.0711   16.5174    0.1034   16.9173    0.1065    0.0000    0.0000
  0.280   17.4799    0.1194   17.2120    0.1169   14.0261    0.0858   13.3261    0.0767   16.5316    0.1116   16.9319    0.1149    0.0000    0.0000
  0.300   17.4962    0.1282   17.2280    0.1255   14.0379    0.0921   13.3366    0.0823   16.5469    0.1198   16.9477    0.1234    0.0000    0.0000
  0.320   17.5137    0.1370   17.2452    0.1342   14.0505    0.0985   13.3479    0.0880   16.5633    0.1281   16.9645    0.1319    0.0000    0.0000
  0.340   17.5324    0.1460   17.2635    0.1429   14.0639    0.1049   13.3599    0.0937   16.5808    0.1365   16.9825    0.1405    0.0000    0.0000
  0.360   17.5523    0.1550   17.2830    0.1517   14.0782    0.1113   13.3727    0.0994   16.5994    0.1449   17.0017    0.1491    0.0000    0.0000
  0.380   17.5734    0.1640   17.3036    0.1606   14.0934    0.1178   13.3862    0.1052   16.6191    0.1534   17.0220    0.1579    0.0000    0.0000
  0.400   17.5957    0.1732   17.3254    0.1696   14.1094    0.1244   13.4005    0.1110   16.6399    0.1619   17.0434    0.1667    0.0000    0.0000
  0.420   17.6192    0.1824   17.3484    0.1786   14.1263    0.1310   13.4156    0.1169   16.6619    0.1705   17.0660    0.1756    0.0000    0.0000
  0.440   17.6439    0.1917   17.3726    0.1877   14.1440    0.1376   13.4315    0.1228   16.6850    0.1793   17.0898    0.1845    0.0000    0.0000
  0.460   17.6699    0.2011   17.3980    0.1969   14.1627    0.1444   13.4481    0.1288   16.7093    0.1880   17.1148    0.1936    0.0000    0.0000
  0.480   17.6971    0.2106   17.4247    0.2062   14.1822    0.1511   13.4656    0.1348   16.7347    0.1969   17.1410    0.2027    0.0000    0.0000
  0.500   17.7255    0.2203   17.4525    0.2156   14.2026    0.1580   13.4838    0.1409   16.7613    0.2059   17.1684    0.2120    0.0000    0.0000
  0.520   17.7553    0.2300   17.4817    0.2251   14.2240    0.1649   13.5028    0.1470   16.7891    0.2150   17.1970    0.2213    0.0000    0.0000
  0.540   17.7863    0.2398   17.5120    0.2347   14.2462    0.1719   13.5227    0.1532   16.8181    0.2242   17.2268    0.2308    0.0000    0.0000
  0.560   17.8186    0.2497   17.5437    0.2445   14.2694    0.1790   13.5434    0.1595   16.8483    0.2335   17.2580    0.2404    0.0000    0.0000
  0.580   17.8523    0.2598   17.5766    0.2543   14.2935    0.1861   13.5649    0.1658   16.8798    0.2429   17.2903    0.2501    0.0000    0.0000
  0.600   17.8872    0.2700   17.6109    0.2643   14.3186    0.1934   13.5872    0.1722   16.9125    0.2524   17.3240    0.2599    0.0000    0.0000
  0.620   17.9236    0.2803   17.6464    0.2744   14.3447    0.2007   13.6104    0.1787   16.9465    0.2621   17.3590    0.2699    0.0000    0.0000
  0.640   17.9613    0.2908   17.6834    0.2847   14.3717    0.2082   13.6345    0.1852   16.9817    0.2719   17.3953    0.2800    0.0000    0.0000
  0.660   18.0004    0.3014   17.7216    0.2951   14.3997    0.2157   13.6594    0.1919   17.0183    0.2818   17.4329    0.2902    0.0000    0.0000
  0.680   18.0409    0.3122   17.7613    0.3056   14.4287    0.2233   13.6852    0.1986   17.0561    0.2919   17.4719    0.3006    0.0000    0.0000
  0.700   18.0828    0.3231   17.8023    0.3163   14.4587    0.2311   13.7120    0.2054   17.0953    0.3021   17.5123    0.3111    0.0000    0.0000
  0.720   18.1262    0.3343   17.8448    0.3272   14.4897    0.2389   13.7396    0.2123   17.1359    0.3125   17.5541    0.3218    0.0000    0.0000
  0.740   18.1711    0.3455   17.8887    0.3382   14.5218    0.2469   13.7681    0.2193   17.1778    0.3230   17.5973    0.3327    0.0000    0.0000
  0.760   18.2174    0.3570   17.9341    0.3494   14.5550    0.2550   13.7975    0.2264   17.2212    0.3338   17.6419    0.3438    0.0000    0.0000
  0.780   18.2653    0.3687   17.9810    0.3609   14.5892    0.2632   13.8279    0.2336   17.2660    0.3447   17.6880    0.3550    0.0000    0.0000
  0.800   18.3148    0.3805   18.0293    0.3725   14.6245    0.2715   13.8593    0.2409   17.3122    0.3558   17.7356    0.3665    0.0000    0.0000
  0.820   18.3658    0.3926   18.0793    0.3843   14.6609    0.2800   13.8916    0.2483   17.3598    0.3671   17.7847    0.3781    0.0000    0.0000
  0.840   18.4184    0.4049   18.1307    0.3963   14.6984    0.2887   13.9249    0.2558   17.4090    0.3786   17.8354    0.3900    0.0000    0.0000
  0.860   18.4726    0.4174   18.1838    0.4085   14.7371    0.2975   13.9592    0.2635   17.4597    0.3903   17.8876    0.4021    0.0000    0.0000
  0.880   18.5285    0.4302   18.2385    0.4210   14.7770    0.3064   13.9945    0.2713   17.5120    0.4022   17.9414    0.4144    0.0000    0.0000
  0.900   18.5861    0.4432   18.2949    0.4337   14.8180    0.3155   14.0309    0.2792   17.5658    0.4144   17.9969    0.4269    0.0000    0.0000
  0.920   18.6454    0.4565   18.3529    0.4467   14.8603    0.3248   14.0683    0.2872   17.6213    0.4268   18.0540    0.4398    0.0000    0.0000
  0.940   18.7065    0.4700   18.4127    0.4600   14.9037    0.3342   14.1068    0.2954   17.6784    0.4394   18.1128    0.4528    0.0000    0.0000
  0.960   18.7693    0.4838   18.4742    0.4735   14.9485    0.3439   14.1463    0.3038   17.7371    0.4523   18.1734    0.4662    0.0000    0.0000
  0.980   18.8340    0.4980   18.5375    0.4873   14.9945    0.3537   14.1870    0.3122   17.7976    0.4655   18.2357    0.4798    0.0000    0.0000
  1.000   18.9006    0.5124   18.6027    0.5014   15.0418    0.3637   14.2288    0.3209   17.8598    0.4790   18.2999    0.4937    0.0000    0.0000
  1.020   18.9691    0.5271   18.6697    0.5158   15.0904    0.3740   14.2717    0.3297   17.9239    0.4928   18.3658    0.5080    0.0000    0.0000
  1.040   19.0395    0.5422   18.7386    0.5305   15.1404    0.3845   14.3159    0.3387   17.9897    0.5069   18.4337    0.5226    0.0000    0.0000
  1.060   19.1119    0.5576   18.8095    0.5456   15.1918    0.3951   14.3612    0.3479   18.0574    0.5213   18.5035    0.5375    0.0000    0.0000
  1.080   19.1864    0.5734   18.8823    0.5610   15.2446    0.4061   14.4077    0.3573   18.1270    0.5361   18.5752    0.5527    0.0000    0.0000
  1.100   19.2629    0.5896   18.9572    0.5768   15.2989    0.4172   14.4555    0.3668   18.1986    0.5512   18.6490    0.5684    0.0000    0.0000
  1.120   19.3416    0.6061   19.0342    0.5930   15.3546    0.4287   14.5045    0.3766   18.2722    0.5666   18.7249    0.5844    0.0000    0.0000
  1.140   19.4225    0.6231   19.1133    0.6096   15.4118    0.4404   14.5548    0.3866   18.3478    0.5825   18.8028    0.6008    0.0000    0.0000
  1.160   19.5056    0.6405   19.1947    0.6266   15.4706    0.4524   14.6065    0.3968   18.4255    0.5988   18.8830    0.6177    0.0000    0.0000
  1.180   19.5910    0.6583   19.2782    0.6440   15.5310    0.4646   14.6595    0.4072   18.5053    0.6155   18.9653    0.6349    0.0000    0.0000
  1.200   19.6788    0.6766   19.3641    0.6619   15.5930    0.4772   14.7139    0.4179   18.5874    0.6326   19.0500    0.6527    0.0000    0.0000
  1.220   19.7690    0.6955   19.4523    0.6803   15.6566    0.4901   14.7697    0.4288   18.6717    0.6502   19.1370    0.6709    0.0000    0.0000
  1.240   19.8617    0.7148   19.5430    0.6992   15.7220    0.5033   14.8269    0.4399   18.7584    0.6683   19.2264    0.6897    0.0000    0.0000
  1.260   19.9569    0.7347   19.6362    0.7186   15.7891    0.5169   14.8856    0.4514   18.8474    0.6868   19.3182    0.7089    0.0000    0.0000
  1.280   20.0548    0.7551   19.7319    0.7385   15.8580    0.5309   14.9459    0.4631   18.9389    0.7059   19.4126    0.7288    0.0000    0.0000
  1.300   20.1553    0.7761   19.8302    0.7591   15.9288    0.5452   15.0077    0.4751   19.0329    0.7256   19.5096    0.7492    0.0000    0.0000
  1.320   20.2586    0.7977   19.9313    0.7802   16.0014    0.5599   15.0710    0.4875   19.1295    0.7458   19.6093    0.7702    0.0000    0.0000
  1.340   20.3648    0.8200   20.0351    0.8020   16.0760    0.5751   15.1361    0.5001   19.2287    0.7667   19.7118    0.7919    0.0000    0.0000
  1.360   20.4739    0.8430   20.1418    0.8244   16.1526    0.5907   15.2027    0.5131   19.3307    0.7881   19.8171    0.8142    0.0000    0.0000
  1.380   20.5860    0.8667   20.2515    0.8475   16.2312    0.6067   15.2711    0.5264   19.4356    0.8103   19.9254    0.8372    0.0000    0.0000
  1.400   20.7013    0.8911   20.3641    0.8714   16.3120    0.6232   15.3413    0.5401   19.5433    0.8331   20.0367    0.8610    0.0000    0.0000
  1.420   20.8197    0.9163   20.4800    0.8960   16.3949    0.6403   15.4133    0.5542   19.6540    0.8567   20.1511    0.8856    0.0000    0.0000
  1.440   20.9415    0.9424   20.5990    0.9215   16.4800    0.6578   15.4871    0.5687   19.7679    0.8811   20.2687    0.9110    0.0000    0.0000
  1.460   21.0666    0.9693   20.7214    0.9477   16.5675    0.6760   15.5628    0.5836   19.8849    0.9062   20.3896    0.9372    0.0000    0.0000
  1.480   21.1953    0.9971   20.8473    0.9749   16.6573    0.6947   15.6405    0.5989   20.0052    0.9323   20.5140    0.9644    0.0000    0.0000
  1.500   21.3277    1.0259   20.9767    1.0030   16.7496    0.7140   15.7202    0.6147   20.1290    0.9592   20.6420    0.9925    0.0000    0.0000
  1.520   21.4638    1.0557   21.1098    1.0321   16.8445    0.7340   15.8020    0.6310   20.2562    0.9871   20.7736    1.0217    0.0000    0.0000
  1.540   21.6038    1.0866   21.2467    1.0623   16.9419    0.7547   15.8860    0.6478   20.3872    1.0160   20.9090    1.0519    0.0000    0.0000
  1.560   21.7479    1.1187   21.3875    1.0936   17.0421    0.7760   15.9721    0.6651   20.5218    1.0459   21.0484    1.0832    0.0000    0.0000
  1.580   21.8961    1.1519   21.5324    1.1260   17.1450    0.7982   16.0605    0.6829   20.6604    1.0770   21.1918    1.1158    0.0000    0.0000
  1.600   22.0487    1.1863   21.6816    1.1596   17.2509    0.8212   16.1513    0.7014   20.8031    1.1092   21.3395    1.1496    0.0000    0.0000
  1.620   22.2057    1.2222   21.8351    1.1946   17.3597    0.8450   16.2445    0.7204   20.9499    1.1427   21.4916    1.1848    0.0000    0.0000
  1.640   22.3675    1.2594   21.9932    1.2310   17.4717    0.8697   16.3402    0.7402   21.1011    1.1775   21.6482    1.2214    0.0000    0.0000
  1.660   22.5340    1.2981   22.1559    1.2688   17.5868    0.8953   16.4384    0.7605   21.2569    1.2137   21.8096    1.2596    0.0000    0.0000
  1.680   22.7056    1.3385   22.3236    1.3081   17.7053    0.9220   16.5394    0.7816   21.4173    1.2514   21.9759    1.2993    0.0000    0.0000
  1.700   22.8824    1.3805   22.4964    1.3491   17.8273    0.9497   16.6431    0.8035   21.5826    1.2907   22.1473    1.3408    0.0000    0.0000
  1.720   23.0646    1.4243   22.6745    1.3919   17.9528    0.9786   16.7496    0.8262   21.7530    1.3316   22.3241    1.3841    0.0000    0.0000
  1.740   23.2525    1.4700   22.8582    1.4365   18.0821    1.0087   16.8591    0.8497   21.9287    1.3743   22.5065    1.4294    0.0000    0.0000
  1.760   23.4463    1.5178   23.0475    1.4832   18.2153    1.0401   16.9717    0.8741   22.1099    1.4189   22.6946    1.4768    0.0000    0.0000
  1.780   23.6462    1.5677   23.2429    1.5319   18.3525    1.0729   17.0875    0.8994   22.2968    1.4656   22.8888    1.5264    0.0000    0.0000
  1.800   23.8525    1.6200   23.4445    1.5829   18.4939    1.1071   17.2065    0.9257   22.4898    1.5144   23.0894    1.5785    0.0000    0.0000
  1.820   24.0656    1.6748   23.6527    1.6364   18.6397    1.1429   17.3290    0.9531   22.6890    1.5655   23.2965    1.6331    0.0000    0.0000
  1.840   24.2856    1.7322   23.8676    1.6924   18.7901    1.1804   17.4550    0.9816   22.8947    1.6191   23.5106    1.6905    0.0000    0.0000
  1.860   24.5129    1.7925   24.0898    1.7513   18.9453    1.2197   17.5847    1.0114   23.1073    1.6753   23.7320    1.7510    0.0000    0.0000
  1.880   24.7479    1.8558   24.3194    1.8131   19.1055    1.2609   17.7183    1.0423   23.3270    1.7344   23.9609    1.8146    0.0000    0.0000
  1.900   24.9910    1.9225   24.5568    1.8782   19.2709    1.3042   17.8558    1.0747   23.5542    1.7965   24.1978    1.8818    0.0000    0.0000
  1.920   25.2424    1.9927   24.8024    1.9467   19.4417    1.3498   17.9975    1.1085   23.7893    1.8619   24.4431    1.9528    0.0000    0.0000
  1.940   25.5026    2.0668   25.0566    2.0191   19.6183    1.3978   18.1436    1.1438   24.0327    1.9309   24.6972    2.0279    0.0000    0.0000
  1.960   25.7722    2.1450   25.3199    2.0954   19.8009    1.4484   18.2942    1.1807   24.2847    2.0036   24.9606    2.1075    0.0000    0.0000
  1.980   26.0514    2.2277   25.5927    2.1762   19.9899    1.5019   18.4495    1.2195   24.5458    2.0805   25.2337    2.1920    0.0000    0.0000
  2.000   26.3410    2.3153   25.8755    2.2618   20.1854    1.5585   18.6097    1.2601   24.8165    2.1619   25.5171    2.2819    0.0000    0.0000
  2.020   26.6413    2.4083   26.1689    2.3526   20.3879    1.6184   18.7751    1.3028   25.0973    2.2481   25.8113    2.3777    0.0000    0.0000
  2.040   26.9530    2.5070   26.4733    2.4490   20.5977    1.6821   18.9460    1.3476   25.3888    2.3396   26.1169    2.4800    0.0000    0.0000
  2.060   27.2767    2.6122   26.7895    2.5517   20.8153    1.7498   19.1224    1.3948   25.6915    2.4368   26.4346    2.5895    0.0000    0.0000
  2.080   27.6131    2.7242   27.1181    2.6612   21.0410    1.8219   19.3049    1.4446   26.0060    2.5403   26.7651    2.7069    0.0001    0.0000
  2.100   27.9629    2.8440   27.4597    2.7783   21.2753    1.8990   19.4935    1.4971   26.3332    2.6507   27.1091    2.8331    0.0002    0.0000
  2.120   28.3269    2.9722   27.8152    2.9036   21.5186    1.9814   19.6887    1.5525   26.6736    2.7686   27.4673    2.9692    0.0004    0.0000
  2.140   28.7059    3.1097   28.1853    3.0381   21.7714    2.0699   19.8908    1.6112   27.0281    2.8948   27.8407    3.1164    0.0008    0.0000
  2.160   29.1008    3.2576   28.5710    3.1827   22.0344    2.1650   20.1002    1.6735   27.3976    3.0302   28.2299    3.2759    0.0017    0.0000
  2.180   29.5125    3.4171   28.9730    3.3387   22.3080    2.2677   20.3172    1.7396   27.7829    3.1757   28.6359    3.4495    0.0033    0.0000
  2.200   29.9420    3.5894   29.3924    3.5074   22.5928    2.3787   20.5422    1.8098   28.1851    3.3324   29.0596    3.6391    0.0063    0.0000
  2.220   30.3903    3.7762   29.8303    3.6902   22.8895    2.4992   20.7758    1.8847   28.6052    3.5015   29.5018    3.8467    0.0115    0.0000
  2.240   30.8585    3.9793   30.2875    3.8891   23.1985    2.6304   21.0183    1.9647   29.0445    3.6845   29.9632    4.0751    0.0205    0.0000
  2.260   31.3477    4.2007   30.7651    4.1060   23.5205    2.7738   21.2704    2.0502   29.5040    3.8831   30.4445    4.3274    0.0351    0.0001
  2.280   31.8588    4.4430   31.2643    4.3435   23.8560    2.9310   21.5325    2.1419   29.9852    4.0992   30.9460    4.6072    0.0582    0.0001
  2.300   32.3929    4.7091   31.7858    4.6043   24.2053    3.1041   21.8052    2.2404   30.4895    4.3351   31.4676    4.9188    0.0931    0.0002
  2.320   32.9508    5.0022   32.3305    4.8919   24.5686    3.2954   22.0893    2.3466   31.0183    4.5932   32.0085    5.2673    0.1437    0.0003
  2.340   33.5329    5.3262   32.8989    5.2099   24.9458    3.5077   22.3854    2.4612   31.5733    4.8767   32.5670    5.6586    0.2145    0.0004
  2.360   34.1393    5.6856   33.4910    5.5629   25.3362    3.7439   22.6941    2.5854   32.1559    5.1891   33.1396    6.0989    0.3091    0.0007
  2.380   34.7694    6.0854   34.1061    5.9557   25.7386    4.0075   23.0164    2.7203   32.7679    5.5346   33.7209    6.5954    0.4308    0.0010
  2.400   35.4214    6.5308   34.7426    6.3938   26.1506    4.3020   23.3530    2.8672   33.4108    5.9182   34.3022    7.1547    0.5806    0.0014
  2.420   36.0925    7.0273   35.3975    6.8824   26.5685    4.6306   23.7048    3.0279   34.0860    6.3459   34.8711    7.7820    0.7576    0.0020
  2.440   36.7781    7.5798   36.0663    7.4266   26.9873    4.9957   24.0726    3.2042   34.7946    6.8246   35.4111    8.4786    0.9583    0.0027
  2.460   37.4723    8.1914   36.7432    8.0297   27.4006    5.3976   24.4574    3.3983   35.5373    7.3628   35.9020    9.2391    1.1770    0.0035
  2.480   38.1688    8.8628   37.4218    8.6926   27.8017    5.8339   24.8599    3.6130   36.3139    7.9703   36.3231   10.0472    1.4070    0.0046
  2.500   38.8628    9.5913   38.0970    9.4130   28.1854    6.2978   25.2810    3.8513   37.1229    8.6590   36.6602   10.8733    1.6424    0.0058
  2.520   39.5539   10.3718   38.7681   10.1863   28.5512    6.7800   25.7212    4.1171   37.9607    9.4425   36.9147   11.6768    1.8803    0.0072
  2.540   40.2490   11.2002   39.4411   11.0090   28.9059    7.2708   26.1809    4.4148   38.8209   10.3368   37.1133   12.4161    2.1227    0.0087
  2.560   40.9613   12.0797   40.1279   11.8845   29.2633    7.7668   26.6599    4.7497   39.6929   11.3593   37.3077   13.0661    2.3786    0.0105
  2.580   41.7057   13.0253   40.8416   12.8279   29.6395    8.2743   27.1574    5.1283   40.5602   12.5288   37.5623   13.6330    2.6642    0.0124
  2.600   42.4901   14.0646   41.5883   13.8659   30.0457    8.8108   27.6714    5.5580   41.3989   13.8629   37.9325   14.1576    3.0030    0.0146
  2.620   43.3092   15.2330   42.3602   15.0324   30.4827    9.3995   28.1982    6.0474   42.1766   15.3758   38.4482   14.7034    3.4229    0.0171
  2.640   44.1419   16.5657   43.1341   16.3604   30.9391   10.0623   28.7319    6.6065   42.8525   17.0729   39.1091   15.3393    3.9539    0.0200
  2.660   44.9535   18.0920   43.8734   17.8755   31.3950   10.8145   29.2630    7.2460   43.3812   18.9470   39.8899   16.1266    4.6229    0.0234
  2.680   45.6996   19.8316   44.5326   19.5924   31.8268   11.6621   29.7773    7.9763   43.7193   20.9752   40.7491   17.1140    5.4504    0.0275
  2.700   46.3291   21.7943   45.0613   21.5146   32.2124   12.6031   30.2545    8.8068   43.8342   23.1230   41.6344   18.3368    6.4456    0.0322
  2.720   46.7849   23.9803   45.4055   23.6358   32.5334   13.6315   30.6673    9.7418   43.7070   25.3543   42.4843   19.8175    7.6040    0.0378
  2.740   47.0006   26.3785   45.5046   25.9389   32.7733   14.7402   30.9809   10.7768   43.3246   27.6413   43.2296   21.5633    8.9056    0.0443
  2.760   46.8984   28.9571   45.2889   28.3878   32.9139   15.9213   31.1564   11.8918   42.6641   29.9625   43.7952   23.5613   10.3157    0.0519
  2.780   46.3964   31.6479   44.6869   30.9127   32.9342   17.1603   31.1586   13.0461   41.6843   32.2826   44.1075   25.7731   11.7874    0.0606
  2.800   45.4327   34.3357   43.6479   33.4011   32.8160   18.4324   30.9697   14.1777   40.3417   34.5295   44.1066   28.1342   13.2659    0.0703
  2.820   43.9994   36.8687   42.1731   35.7092   32.5521   19.7050   30.6048   15.2131   38.6240   36.5926   43.7593   30.5623   14.6943    0.0811
  2.840   42.1646   39.0973   40.3335   37.6983   32.1490   20.9474   30.1186   16.0902   36.5776   38.3503   43.0626   32.9736   16.0200    0.0929
  2.860   40.0588   40.9228   38.2545   39.2764   31.6195   22.1380   29.5939   16.7839   34.3038   39.7119   42.0349   35.2958   17.2011    0.1055
  2.880   37.8284   42.3215   36.0781   40.4148   30.9746   23.2605   29.1130   17.3168   31.9255   40.6404   40.7032   37.4667   18.2115    0.1189
  2.900   35.5905   43.3256   33.9305   41.1345   30.2239   24.2957   28.7284   17.7480   29.5561   41.1427   39.1024   39.4235   19.0442    0.1329
  2.920   33.4240   43.9846   31.9156   41.4847   29.3856   25.2195   28.4522   18.1460   27.2912   41.2483   37.2913   41.1011   19.7129    0.1474
  2.940   31.3895   44.3462   30.1206   41.5353   28.4932   26.0129   28.2640   18.5651   25.2187   41.0019   35.3668   42.4523   20.2507    0.1623
  2.960   29.5473   44.4664   28.6135   41.3818   27.5916   26.6755   28.1288   19.0362   23.4200   40.4724   33.4526   43.4819   20.7057    0.1775
  2.980   27.9473   44.4285   27.4289   41.1453   26.7212   27.2320   28.0129   19.5703   21.9551   39.7593   31.6610   44.2648   21.1344    0.1930
  3.000   26.6034   44.3420   26.5508   40.9578   25.9021   27.7267   27.8889   20.1693   20.8425   38.9811   30.0452   44.9313   21.5926    0.2089
  3.020   25.4742   44.3164   25.9081   40.9363   25.1245   28.2068   27.7316   20.8331   20.0544   38.2509   28.5731   45.6204   22.1260    0.2252
  3.040   24.4701   44.4275   25.3866   41.1577   24.3521   28.7043   27.5105   21.5574   19.5298   37.6569   27.1374   46.4280   22.7594    0.2419
  3.060   23.4801   44.6968   24.8509   41.6444   23.5360   29.2243   27.1891   22.3233   19.1917   37.2602   25.5933   47.3739   23.4897    0.2592
  3.080   22.4028   45.0929   24.1683   42.3630   22.6295   29.7440   26.7376   23.0886   18.9523   37.1011   23.8033   48.3970   24.2813    0.2770
  3.100   21.1662   45.5491   23.2281   43.2289   21.5995   30.2168   26.1504   23.7943   18.7081   37.1975   21.6723   49.3711   25.0670    0.2954
  3.120   19.7315   45.9825   21.9599   44.1167   20.4352   30.5792   25.4544   24.3824   18.3392   37.5300   19.1715   50.1306   25.7548    0.3144
  3.140   18.0872   46.3045   20.3484   44.8796   19.1547   30.7592   24.7017   24.8167   17.7257   38.0220   16.3494   50.5027   26.2402    0.3337
  3.160   16.2456   46.4204   18.4369   45.3719   17.8111   30.6885   23.9497   25.0904   16.7826   38.5330   13.3284   50.3420   26.4224    0.3531
  3.180   14.2520   46.2270   16.3220   45.4702   16.4925   30.3199   23.2440   25.2172   15.4997   38.8769   10.2867   49.5592   26.2217    0.3723
  3.200   12.2024   45.6260   14.1440   45.0897   15.3108   29.6472   22.6166   25.2153   13.9678   38.8684    7.4307   48.1394   25.5960    0.3912
  3.220   10.2492   44.5567   12.0744   44.1993   14.3790   28.7153   22.0967   25.0997   12.3709   38.3832    4.9629   46.1479   24.5517    0.4092
  3.240    8.5790   43.0334   10.2951   42.8366   13.7843   27.6163   21.7214   24.8895   10.9388   37.4045    3.0489   43.7231   23.1480    0.4262
  3.260    7.3646   41.1612    8.9661   41.1132   13.5687   26.4699   21.5333   24.6226    9.8802   36.0303    1.7896   41.0540   21.4923    0.4420
  3.280    6.7153   39.1159    8.1904   39.1983   13.7245   25.3994   21.5642   24.3630    9.3267   34.4385    1.2070   38.3465   19.7276    0.4565
  3.300    6.6514   37.0974    7.9928   37.2849   14.2017   24.5102   21.8169   24.1936    9.3135   32.8309    1.2493   35.7878   18.0133    0.4698
  3.320    7.1133   35.2827    8.3227   35.5493   14.9233   23.8785   22.2564   24.1972    9.7936   31.3845    1.8121   33.5197   16.5039    0.4819
  3.340    7.9902   33.7975    9.0763   34.1231   15.7999   23.5481   22.8145   24.4376   10.6714   30.2269    2.7666   31.6302   15.3274    0.4932
  3.360    9.1522   32.7106   10.1253   33.0829   16.7401   23.5335   23.4017   24.9467   11.8324   29.4341    3.9824   30.1568   14.5701    0.5039
  3.380   10.4731   32.0418   11.3408   32.4540   17.6579   23.8237   23.9226   25.7192   13.1633   29.0399    5.3421   29.0981   14.2674    0.5143
  3.400   11.8440   31.7728   12.6097   32.2201   18.4774   24.3840   24.2916   26.7119   14.5609   29.0468    6.7485   28.4237   14.4036    0.5249
  3.420   13.1816   31.8588   13.8458   32.3352   19.1399   25.1595   24.4487   27.8512   15.9361   29.4336    8.1290   28.0832   14.9204    0.5359
  3.440   14.4333   32.2409   14.9966   32.7372   19.6110   26.0811   24.3718   29.0458   17.2176   30.1615    9.4408   28.0152   15.7305    0.5475
  3.460   15.5797   32.8597   16.0464   33.3658   19.8869   27.0767   24.0827   30.2079   18.3558   31.1802   10.6721   28.1609   16.7355    0.5598
  3.480   16.6301   33.6721   17.0089   34.1803   19.9912   28.0861   23.6399   31.2746   19.3245   32.4387   11.8369   28.4790   17.8429    0.5729
  3.500   17.6081   34.6644   17.9098   35.1729   19.9654   29.0715   23.1204   32.2246   20.1170   33.8953   12.9601   28.9553   18.9805    0.5868
  3.520   18.5310   35.8550   18.7645   36.3690   19.8543   30.0196   22.5933   33.0809   20.7364   35.5242   14.0597   29.6009   20.1060    0.6016
  3.540   19.3900   37.2839   19.5595   37.8140   19.6981   30.9362   22.0968   33.8966   21.1861   37.3147   15.1375   30.4412   21.2101    0.6172
  3.560   20.1431   38.9917   20.2456   39.5525   19.5292   31.8423   21.6290   34.7306   21.4653   39.2690   16.1782   31.5050   22.3138    0.6336
  3.580   20.7206   41.0009   20.7434   41.6099   19.3690   32.7742   21.1560   35.6243   21.5626   41.4020   17.1522   32.8205   23.4609    0.6508
  3.600   21.0392   43.3055   20.9560   43.9785   19.2179   33.7811   20.6299   36.5896   21.4465   43.7372   18.0150   34.4125   24.7070    0.6690
  3.620   21.0175   45.8697   20.7861   46.6139   19.0468   34.9137   20.0085   37.6095   21.0565   46.2941   18.7051   36.2974   26.1063    0.6882
  3.640   20.5859   48.6355   20.1513   49.4385   18.7975   36.2062   19.2691   38.6505   20.3039   49.0688   19.1451   38.4743   27.6995    0.7085
  3.660   19.6898   51.5293   18.9943   52.3508   18.3948   37.6622   18.4104   39.6788   19.0855   52.0176   19.2473   40.9149   29.5019    0.7302
  3.680   18.2906   54.4660   17.2894   55.2368   17.7651   39.2494   17.4450   40.6703   17.3063   55.0500   18.9269   43.5576   31.4959    0.7534
  3.700   16.3691   57.3531   15.0437   57.9837   16.8544   40.9070   16.3907   41.6152   14.9027   58.0381   18.1195   46.3090   33.6269    0.7781
  3.720   13.9250   60.1001   12.2888   60.4967   15.6368   42.5641   15.2607   42.5186   11.8522   60.8399   16.7942   49.0586   35.8050    0.8044
  3.740   10.9647   62.6250    9.0558   62.7019   14.1052   44.1550   14.0504   43.3948    8.1615   63.3175   14.9519   51.6984   37.9129    0.8323
  3.760    7.4866   64.8393    5.3566   64.5204   12.2546   45.6171   12.7312   44.2475    3.8459   65.3295   12.6089   54.1307   39.8193    0.8615
  3.780    3.4901   66.6192    1.2022   65.8276   10.0805   46.8703   11.2636   45.0460   -1.0641   66.7004    9.7853   56.2542   41.3972    0.8920
  3.800   -0.9804   67.7899   -3.3365   66.4424    7.6055   47.8030    9.6338   45.7195   -6.4747   67.2056    6.5214   57.9426   42.5436    0.9232
  3.820   -5.7808   68.1596   -8.0678   66.1816    4.9184   48.2926    7.8861   46.1866  -12.1663   66.6124    2.9174   59.0525   43.1970    0.9550
  3.840  -10.6508   67.5982  -12.6797   64.9601    2.1831   48.2623    6.1212   46.4070  -17.7773   64.7776   -0.8404   59.4743   43.3489    0.9868
  3.860  -15.2682   66.1177  -16.8254   62.8693   -0.4033   47.7336    4.4520   46.4176  -22.8739   61.7429   -4.5081   59.1992   43.0453    1.0185
  3.880  -19.3519   63.8909  -20.2457   60.1701   -2.6852   46.8298    2.9428   46.3235  -27.0771   57.7565   -7.8626   58.3488   42.3772    1.0496
  3.900  -22.7506   61.1924  -22.8518   57.2043   -4.6015   45.7253    1.5744   46.2468  -30.1704   53.2021  -10.7823   57.1356   41.4617    1.0801
  3.920  -25.4644   58.3006  -24.7277   54.2809   -6.1868   44.5769    0.2559   46.2673  -32.1311   48.4833  -13.2767   55.7808   40.4179    1.1098
  3.940  -27.6027   55.4216  -26.0671   51.5982   -7.5319   43.4808   -1.1301   46.3915  -33.0895   43.9297  -15.4546   54.4405   39.3425    1.1387
  3.960  -29.3178   52.6651  -27.0905   49.2245   -8.7371   42.4687   -2.6787   46.5590  -33.2551   39.7545  -17.4625   53.1755   38.2915    1.1669
  3.980  -30.7560   50.0567  -27.9804   47.1252   -9.8858   41.5253   -4.4366   46.6732  -32.8512   36.0589  -19.4311   51.9629   37.2728    1.1943
  4.000  -32.0306   47.5624  -28.8526   45.2105  -11.0348   40.6054   -6.4010   46.6330  -32.0738   32.8595  -21.4461   50.7243   36.2495    1.2209
  4.020  -33.2072   45.1107  -29.7578   43.3763  -12.2092   39.6460   -8.5325   46.3498  -31.0732   30.1217  -23.5369   49.3535   35.1543    1.2467
  4.040  -34.2945   42.6182  -30.6963   41.5279  -13.3960   38.5789  -10.7652   45.7521  -29.9524   27.7878  -25.6722   47.7424   33.9106    1.2717
  4.060  -35.2464   40.0207  -31.6321   39.5908  -14.5443   37.3510  -13.0096   44.7890  -28.7761   25.7974  -27.7645   45.8084   32.4542    1.2955
  4.080  -35.9829   37.2990  -32.5031   37.5184  -15.5771   35.9419  -15.1551   43.4390  -27.5827   24.0972  -29.6883   43.5201   30.7519    1.3181
  4.100  -36.4221   34.4893  -33.2339   35.2978  -16.4113   34.3731  -17.0801   41.7222  -26.3946   22.6425  -31.3109   40.9102   28.8123    1.3393
  4.120  -36.5115   31.6724  -33.7492   32.9528  -16.9786   32.7048  -18.6704   39.7066  -25.2225   21.3965  -32.5248   38.0695   26.6872    1.3589
  4.140  -36.2456   28.9472  -33.9902   30.5411  -17.2415   31.0243  -19.8415   37.5043  -24.0670   20.3316  -33.2715   35.1266   24.4644    1.3769
  4.160  -35.6641   26.4026  -33.9293   28.1428  -17.2000   29.4290  -20.5585   35.2557  -22.9232   19.4333  -33.5507   32.2189   22.2534    1.3933
  4.180  -34.8356   24.0988  -33.5779   25.8420  -16.8915   28.0110  -20.8451   33.1036  -21.7878   18.7010  -33.4145   29.4651   20.1680    1.4081
  4.200  -33.8384   22.0619  -32.9805   23.7060  -16.3851   26.8425  -20.7778   31.1658  -20.6679   18.1444  -32.9492   26.9459   18.3087    1.4215
  4.220  -32.7447   20.2885  -32.1991   21.7727  -15.7708   25.9669  -20.4662   29.5157  -19.5841   17.7750  -32.2515   24.6974   16.7491    1.4338
  4.240  -31.6115   18.7546  -31.2952   20.0506  -15.1473   25.3934  -20.0291   28.1770  -18.5704   17.5981  -31.4082   22.7175   15.5279    1.4453
  4.260  -30.4764   17.4256  -30.3168   18.5277  -14.6093   25.0979  -19.5738   27.1301  -17.6700   17.6067  -30.4826   20.9789   14.6480    1.4560
  4.280  -29.3574   16.2659  -29.2940   17.1843  -14.2386   25.0266  -19.1838   26.3250  -16.9303   17.7757  -29.5110   19.4469   14.0829    1.4664
  4.300  -28.2576   15.2474  -28.2432   16.0028  -14.0946   25.1001  -18.9157   25.6935  -16.3938   18.0583  -28.5088   18.0927   13.7876    1.4765
  4.320  -27.1729   14.3533  -27.1739   14.9728  -14.2053   25.2201  -18.7967   25.1571  -16.0858   18.3864  -27.4809   16.9001   13.7121    1.4866
  4.340  -26.0995   13.5779  -26.0953   14.0897  -14.5571   25.2808  -18.8222   24.6362  -16.0007   18.6792  -26.4324   15.8643   13.8147    1.4967
  4.360  -25.0384   12.9215  -25.0188   13.3510  -15.0888   25.1905  -18.9536   24.0631  -16.0942   18.8622  -25.3732   14.9860   14.0714    1.5071
  4.380  -23.9962   12.3864  -23.9578   12.7546  -15.7017   24.8986  -19.1259   23.4004  -16.2895   18.8908  -24.3186   14.2665   14.4790    1.5177
  4.400  -22.9837   11.9741  -22.9272   12.2973  -16.2885   24.4134  -19.2685   22.6532  -16.4997   18.7664  -23.2877   13.7051   15.0521    1.5288
  4.420  -22.0153   11.6842  -21.9430   11.9747  -16.7692   23.7972  -19.3318   21.8648  -16.6569   18.5347  -22.3023   13.2982   15.8143    1.5404
  4.440  -21.1080   11.5135  -21.0234   11.7805  -17.1172   23.1388  -19.3051   21.0957  -16.7337   18.2652  -21.3870   13.0383   16.7853    1.5527
  4.460  -20.2817   11.4545  -20.1885   11.7049  -17.3618   22.5167  -19.2181   20.3962  -16.7469   18.0235  -20.5686   12.9118   17.9681    1.5660
  4.480  -19.5580   11.4936  -19.4602   11.7324  -17.5683   21.9703  -19.1247   19.7851  -16.7446   17.8482  -19.8747   12.8959   19.3397    1.5802
  4.500  -18.9574   11.6080  -18.8587   11.8388  -17.8068   21.4892  -19.0785   19.2424  -16.7845   17.7414  -19.3289   12.9559   20.8473    1.5955
  4.520  -18.4945   11.7656  -18.3983   11.9909  -18.1231   21.0229  -19.1094   18.7182  -16.9125   17.6729  -18.9431   13.0452   22.4114    1.6120
  4.540  -18.1716   11.9273  -18.0813   12.1495  -18.5217   20.5044  -19.2112   18.1537  -17.1500   17.5939  -18.7094   13.1115   23.9352    1.6296
  4.560  -17.9753   12.0546  -17.8952   12.2756  -18.9666   19.8781  -19.3436   17.5048  -17.4907   17.4533  -18.5966   13.1095   25.3172    1.6482
  4.580  -17.8781   12.1180  -17.8145   12.3385  -19.3984   19.1190  -19.4498   16.7588  -17.9069   17.2106  -18.5574   13.0142   26.4650    1.6676
  4.600  -17.8462   12.1032  -17.8066   12.3202  -19.7564   18.2371  -19.4781   15.9347  -18.3581   16.8417  -18.5427   12.8270   27.3058    1.6877
  4.620  -17.8481   12.0101  -17.8381   12.2161  -19.9964   17.2686  -19.3963   15.0726  -18.8001   16.3403  -18.5176   12.5706   27.7935    1.7081
  4.640  -17.8600   11.8479  -17.8807   12.0326  -20.0989   16.2606  -19.1966   14.2178  -19.1913   15.7164  -18.4689   12.2748   27.9105    1.7286
  4.660  -17.8673   11.6294  -17.9148   11.7828  -20.0664   15.2572  -18.8911   13.4094  -19.4983   14.9929  -18.4027   11.9626   27.6660    1.7490
  4.680  -17.8630   11.3654  -17.9299   11.4804  -19.9156   14.2910  -18.5035   12.6732  -19.6999   14.2006  -18.3337   11.6408   27.0921    1.7689
  4.700  -17.8436   11.0622  -17.9210   11.1344  -19.6676   13.3816  -18.0605   12.0211  -19.7876   13.3724  -18.2720   11.3002   26.2394    1.7882
  4.720  -17.8040   10.7207  -17.8818   10.7485  -19.3422   12.5389  -17.5852   11.4543  -19.7636   12.5369  -18.2130   10.9240   25.1727    1.8067
  4.740  -17.7326   10.3423  -17.8004   10.3271  -18.9551   11.7685  -17.0940   10.9687  -19.6353   11.7164  -18.1365   10.5017   23.9670    1.8243
  4.760  -17.6134    9.9351  -17.6614    9.8822  -18.5197   11.0746  -16.5984   10.5600  -19.4115   10.9291  -18.0154   10.0383   22.7038    1.8410
  4.780  -17.4330    9.5178  -17.4546    9.4354  -18.0496   10.4612  -16.1076   10.2257  -19.1023   10.1915  -17.8286    9.5555   21.4652    1.8567
  4.800  -17.1880    9.1161  -17.1805    9.0135  -17.5598    9.9312  -15.6325    9.9647  -18.7211    9.5190  -17.5692    9.0838   20.3271    1.8717
  4.820  -16.8880    8.7554  -16.8520    8.6402  -17.0671    9.4837  -15.1863    9.7736  -18.2852    8.9237  -17.2464    8.6523   19.3522    1.8859
  4.840  -16.5528    8.4538  -16.4903    8.3315  -16.5885    9.1133  -14.7839    9.6447  -17.8152    8.4122  -16.8805    8.2815   18.5825    1.8996
  4.860  -16.2073    8.2185  -16.1202    8.0924  -16.1390    8.8093  -14.4383    9.5640  -17.3321    7.9852  -16.4971    7.9809   18.0353    1.9128
  4.880  -15.8761    8.0458  -15.7651    7.9183  -15.7294    8.5564  -14.1574    9.5117  -16.8554    7.6371  -16.1222    7.7482   17.7033    1.9258
  4.900  -15.5790    7.9220  -15.4437    7.7962  -15.3638    8.3367  -13.9400    9.4658  -16.4017    7.3574  -15.7778    7.5710   17.5586    1.9387
  4.920  -15.3272    7.8270  -15.1670    7.7076  -15.0394    8.1329  -13.7756    9.4070  -15.9833    7.1312  -15.4779    7.4285   17.5627    1.9516
  4.940  -15.1209    7.7383  -14.9370    7.6317  -14.7471    7.9318  -13.6467    9.3233  -15.6064    6.9406  -15.2247    7.2961   17.6764    1.9646
  4.960  -14.9490    7.6374  -14.7456    7.5503  -14.4743    7.7259  -13.5332    9.2123  -15.2699    6.7672  -15.0073    7.1521   17.8711    1.9778
  4.980  -14.7927    7.5161  -14.5771    7.4532  -14.2077    7.5143  -13.4170    9.0825  -14.9649    6.5952  -14.8054    6.9848   18.1355    1.9911
  5.000  -14.6334    7.3791  -14.4145    7.3417  -13.9359    7.3028  -13.2880    8.9510  -14.6766    6.4158  -14.5966    6.7968   18.4772    2.0047
  5.020  -14.4612    7.2413  -14.2468    7.2267  -13.6525    7.1017  -13.1488    8.8386  -14.3890    6.2293  -14.3656    6.6025   18.9194    2.0186
  5.040  -14.2784    7.1197  -14.0740    7.1229  -13.3584    6.9236  -13.0157    8.7615  -14.0901    6.0445  -14.1090    6.4213   19.4921    2.0329
  5.060  -14.0983    7.0255  -13.9065    7.0407  -13.0613    6.7782  -12.9142    8.7231  -13.7755    5.8739  -13.8344    6.2700   20.2223    2.0478
  5.080  -13.9389    6.9588  -13.7597    6.9807  -12.7737    6.6697  -12.8705    8.7102  -13.4479    5.7292  -13.5567    6.1583   21.1242    2.0633
  5.100  -13.8153    6.9080  -13.6470    6.9327  -12.5083    6.5948  -12.9009    8.6939  -13.1146    5.6182  -13.2933    6.0866   22.1928    2.0796
  5.120  -13.7333    6.8540  -13.5734    6.8794  -12.2741    6.5441  -13.0034    8.6381  -12.7841    5.5445  -13.0592    6.0469   23.4009    2.0968
  5.140  -13.6864    6.7772  -13.5327    6.8030  -12.0739    6.5059  -13.1560    8.5114  -12.4642    5.5086  -12.8630    6.0250   24.7009    2.1150
  5.160  -13.6581    6.6651  -13.5098    6.6922  -11.9044    6.4703  -13.3230    8.2985  -12.1616    5.5105  -12.7054    6.0050   26.0287    2.1341
  5.180  -13.6289    6.5171  -13.4865    6.5461  -11.7591    6.4319  -13.4676    8.0049  -11.8835    5.5496  -12.5790    5.9737   27.3094    2.1542
  5.200  -13.5835    6.3426  -13.4485    6.3731  -11.6329    6.3905  -13.5639    7.6518  -11.6384    5.6246  -12.4726    5.9249   28.4644    2.1751
  5.220  -13.5158    6.1561  -13.3894    6.1862  -11.5237    6.3479  -13.6018    7.2658  -11.4367    5.7320  -12.3759    5.8584   29.4178    2.1967
  5.240  -13.4288    5.9704  -13.3110    5.9970  -11.4335    6.3046  -13.5841    6.8691  -11.2899    5.8640  -12.2819    5.7776   30.1032    2.2188
  5.260  -13.3303    5.7918  -13.2194    5.8122  -11.3649    6.2579  -13.5201    6.4749  -11.2079    6.0075  -12.1863    5.6864   30.4705    2.2412
  5.280  -13.2277    5.6205  -13.1207    5.6329  -11.3190    6.2021  -13.4179    6.0888  -11.1968    6.1440  -12.0860    5.5885   30.4914    2.2636
  5.300  -13.1250    5.4532  -13.0182    5.4573  -11.2936    6.1310  -13.2823    5.7132  -11.2557    6.2519  -11.9786    5.4890   30.1643    2.2858
  5.320  -13.0224    5.2862  -12.9124    5.2836  -11.2843    6.0396  -13.1152    5.3510  -11.3752    6.3096  -11.8639    5.3945   29.5149    2.3075
  5.340  -12.9179    5.1180  -12.8027    5.1116  -11.2856    5.9247  -12.9186    5.0067  -11.5379    6.2993  -11.7459    5.3121   28.5939    2.3285
  5.360  -12.8097    4.9488  -12.6889    4.9420  -11.2920    5.7839  -12.6960    4.6852  -11.7204    6.2099  -11.6328    5.2459   27.4706    2.3487
  5.380  -12.6971    4.7801  -12.5718    4.7755  -11.2962    5.6158  -12.4526    4.3908  -11.8958    6.0393  -11.5350    5.1945   26.2229    2.3680
  5.400  -12.5801    4.6129  -12.4524    4.6121  -11.2902    5.4211  -12.1947    4.1257  -12.0376    5.7965  -11.4612    5.1507   24.9265    2.3863
  5.420  -12.4593    4.4481  -12.3312    4.4512  -11.2657    5.2044  -11.9285    3.8908  -12.1259    5.5006  -11.4147    5.1030   23.6446    2.4037
  5.440  -12.3355    4.2857  -12.2083    4.2922  -11.2173    4.9733  -11.6600    3.6852  -12.1516    5.1755  -11.3926    5.0397   22.4216    2.4202
  5.460  -12.2091    4.1257  -12.0836    4.1350  -11.1438    4.7364  -11.3948    3.5067  -12.1164    4.8435  -11.3873    4.9530   21.2799    2.4358
  5.480  -12.0807    3.9676  -11.9572    3.9790  -11.0474    4.5006  -11.1373    3.3517  -12.0290    4.5209  -11.3900    4.8392   20.2218    2.4507
  5.500  -11.9502    3.8105  -11.8288    3.8235  -10.9319    4.2699  -10.8906    3.2156  -11.8997    4.2176  -11.3927    4.6974   19.2349    2.4648
  5.520  -11.8168    3.6533  -11.6975    3.6676  -10.8003    4.0459  -10.6561    3.0935  -11.7384    3.9388  -11.3875    4.5275   18.2980    2.4782
  5.540  -11.6786    3.4954  -11.5614    3.5106  -10.6542    3.8290  -10.4332    2.9804  -11.5539    3.6874  -11.3657    4.3317   17.3878    2.4910
  5.560  -11.5334    3.3378  -11.4179    3.3537  -10.4939    3.6205  -10.2197    2.8725  -11.3546    3.4646  -11.3182    4.1156   16.4835    2.5031
  5.580  -11.3794    3.1826  -11.2653    3.1992  -10.3201    3.4227  -10.0124    2.7676  -11.1482    3.2694  -11.2391    3.8892   15.5703    2.5146
  5.600  -11.2164    3.0329  -11.1035    3.0503  -10.1344    3.2385   -9.8078    2.6655  -10.9416    3.0988  -11.1275    3.6640   14.6405    2.5253
  5.620  -11.0457    2.8911  -10.9339    2.9098   -9.9402    3.0700   -9.6037    2.5677  -10.7399    2.9477  -10.9875    3.4499   13.6948    2.5354
  5.640  -10.8692    2.7583  -10.7586    2.7788   -9.7414    2.9174   -9.3993    2.4758  -10.5449    2.8102  -10.8262    3.2530   12.7431    2.5448
  5.660  -10.6884    2.6347  -10.5793    2.6574   -9.5414    2.7795   -9.1948    2.3914  -10.3560    2.6809  -10.6508    3.0752   11.8059    2.5535
  5.680  -10.5038    2.5203  -10.3967    2.5454   -9.3418    2.6537   -8.9906    2.3151  -10.1701    2.5564  -10.4666    2.9155   10.9157    2.5615
  5.700  -10.3157    2.4156  -10.2110    2.4432   -9.1427    2.5380   -8.7871    2.2476   -9.9838    2.4360  -10.2766    2.7725   10.1167    2.5689
  5.720  -10.1242    2.3216  -10.0224    2.3520   -8.9432    2.4314   -8.5846    2.1894   -9.7945    2.3209  -10.0820    2.6450    9.4634    2.5759
  5.740   -9.9302    2.2400   -9.8319    2.2735   -8.7423    2.3341   -8.3836    2.1417   -9.6013    2.2135   -9.8838    2.5333    9.0155    2.5825
  5.760   -9.7354    2.1722   -9.6416    2.2094   -8.5399    2.2475   -8.1854    2.1058   -9.4047    2.1159   -9.6833    2.4385    8.8309    2.5890
  5.780   -9.5423    2.1193   -9.4545    2.1604   -8.3367    2.1730   -7.9918    2.0825   -9.2065    2.0295   -9.4830    2.3617    8.9562    2.5956
  5.800   -9.3536    2.0819   -9.2740    2.1267   -8.1346    2.1115   -7.8057    2.0722   -9.0084    1.9548   -9.2862    2.3035    9.4181    2.6025
  5.820   -9.1727    2.0597   -9.1040    2.1070   -7.9358    2.0635   -7.6301    2.0741   -8.8123    1.8917   -9.0965    2.2636   10.2152    2.6100
  5.840   -9.0030    2.0515   -8.9481    2.0986   -7.7426    2.0285   -7.4682    2.0864   -8.6199    1.8395   -8.9180    2.2406   11.3147    2.6183
  5.860   -8.8480    2.0550   -8.8090    2.0973   -7.5576    2.0051   -7.3228    2.1056   -8.4324    1.7969   -8.7548    2.2319   12.6528    2.6276
  5.880   -8.7108    2.0665   -8.6877    2.0978   -7.3826    1.9913   -7.1954    2.1270   -8.2507    1.7625   -8.6104    2.2333   14.1408    2.6380
  5.900   -8.5932    2.0809   -8.5830    2.0942   -7.2190    1.9841   -7.0851    2.1453   -8.0751    1.7348   -8.4867    2.2389   15.6739    2.6495
  5.920   -8.4954    2.0922   -8.4911    2.0821   -7.0668    1.9801   -6.9891    2.1557   -7.9052    1.7123   -8.3838    2.2420   17.1443    2.6621
  5.940   -8.4147    2.0942   -8.4067    2.0591   -6.9248    1.9762   -6.9030    2.1553   -7.7406    1.6939   -8.2986    2.2361   18.4531    2.6751
  5.960   -8.3461    2.0820   -8.3250    2.0256   -6.7905    1.9700   -6.8219    2.1432   -7.5801    1.6789   -8.2256    2.2164   19.5214    2.6919
  5.980   -8.2828    2.0534   -8.2423    1.9834   -6.6608    1.9604   -6.7416    2.1203   -7.4228    1.6669   -8.1579    2.1809   20.2990    2.6975
