# GW Macroscopic dielectric function without local field effects 
# Scissor operator energy =  0.8000 [eV]
# Tolerance =  0.0200 0.0200
# npweps  = 59
# npwwfn  = 137
# nbands  = 6
# loband  = 2
# nkibz   = 64
# nkbz    = 64
# Lorentzian broadening =  0.1500 [eV]
# List of q-points for the optical limit:
# q =  0.938821, 0.000000, 0.000000, [Reduced coords] 
# q =  0.000000, 0.938821, 0.000000, [Reduced coords] 
# q =  0.000000, 0.000000, 0.938821, [Reduced coords] 
# q =  0.000000, 0.813043, 0.813043, [Reduced coords] 
# q =  0.813043, 0.000000, 0.813043, [Reduced coords] 
# q =  0.813043, 0.813043, 0.000000, [Reduced coords] 
# omega [eV]    RE(eps(q=1)) IM(eps(q=1) RE(eps(q=2) ) ... DOS   IDOS
  0.000   14.3195    0.0000   14.1097    0.0000   11.6332    0.0000   11.1094    0.0000   13.5673    0.0000   13.8873    0.0000    0.0000    0.0000
  0.020   14.3198    0.0044   14.1100    0.0043   11.6334    0.0032   11.1096    0.0030   13.5676    0.0041   13.8876    0.0042    0.0000    0.0000
  0.040   14.3207    0.0088   14.1108    0.0086   11.6341    0.0065   11.1102    0.0059   13.5684    0.0082   13.8884    0.0085    0.0000    0.0000
  0.060   14.3221    0.0132   14.1122    0.0130   11.6352    0.0097   11.1112    0.0089   13.5698    0.0124   13.8898    0.0127    0.0000    0.0000
  0.080   14.3242    0.0176   14.1142    0.0173   11.6367    0.0130   11.1125    0.0118   13.5717    0.0165   13.8918    0.0170    0.0000    0.0000
  0.100   14.3268    0.0220   14.1168    0.0216   11.6386    0.0162   11.1143    0.0148   13.5742    0.0206   13.8943    0.0212    0.0000    0.0000
  0.120   14.3300    0.0265   14.1200    0.0259   11.6410    0.0195   11.1165    0.0177   13.5772    0.0248   13.8974    0.0255    0.0000    0.0000
  0.140   14.3338    0.0309   14.1237    0.0303   11.6438    0.0227   11.1190    0.0207   13.5807    0.0289   13.9011    0.0297    0.0000    0.0000
  0.160   14.3382    0.0353   14.1280    0.0346   11.6470    0.0260   11.1220    0.0237   13.5848    0.0331   13.9053    0.0340    0.0000    0.0000
  0.180   14.3432    0.0398   14.1329    0.0390   11.6507    0.0293   11.1253    0.0267   13.5895    0.0372   13.9101    0.0383    0.0000    0.0000
  0.200   14.3488    0.0442   14.1384    0.0434   11.6548    0.0326   11.1290    0.0297   13.5947    0.0414   13.9155    0.0426    0.0000    0.0000
  0.220   14.3549    0.0487   14.1444    0.0477   11.6593    0.0358   11.1332    0.0327   13.6005    0.0456   13.9214    0.0469    0.0000    0.0000
  0.240   14.3617    0.0532   14.1510    0.0521   11.6643    0.0391   11.1377    0.0357   13.6068    0.0498   13.9279    0.0512    0.0000    0.0000
  0.260   14.3690    0.0577   14.1582    0.0566   11.6697    0.0425   11.1426    0.0387   13.6137    0.0540   13.9350    0.0555    0.0000    0.0000
  0.280   14.3770    0.0622   14.1660    0.0610   11.6756    0.0458   11.1480    0.0417   13.6211    0.0582   13.9426    0.0598    0.0000    0.0000
  0.300   14.3855    0.0667   14.1744    0.0654   11.6818    0.0491   11.1537    0.0447   13.6291    0.0625   13.9508    0.0642    0.0000    0.0000
  0.320   14.3947    0.0713   14.1834    0.0699   11.6886    0.0525   11.1598    0.0478   13.6377    0.0667   13.9596    0.0686    0.0000    0.0000
  0.340   14.4045    0.0759   14.1929    0.0744   11.6958    0.0558   11.1664    0.0508   13.6468    0.0710   13.9690    0.0730    0.0000    0.0000
  0.360   14.4148    0.0805   14.2031    0.0789   11.7034    0.0592   11.1733    0.0539   13.6565    0.0753   13.9790    0.0774    0.0000    0.0000
  0.380   14.4258    0.0851   14.2139    0.0834   11.7115    0.0626   11.1807    0.0570   13.6668    0.0796   13.9895    0.0819    0.0000    0.0000
  0.400   14.4374    0.0897   14.2252    0.0880   11.7200    0.0660   11.1884    0.0601   13.6776    0.0840   14.0007    0.0863    0.0000    0.0000
  0.420   14.4496    0.0944   14.2372    0.0925   11.7290    0.0694   11.1966    0.0632   13.6891    0.0883   14.0124    0.0908    0.0000    0.0000
  0.440   14.4624    0.0991   14.2498    0.0971   11.7384    0.0729   11.2052    0.0663   13.7011    0.0927   14.0248    0.0953    0.0000    0.0000
  0.460   14.4759    0.1038   14.2630    0.1018   11.7483    0.0763   11.2142    0.0695   13.7136    0.0972   14.0377    0.0999    0.0000    0.0000
  0.480   14.4900    0.1086   14.2768    0.1064   11.7587    0.0798   11.2236    0.0726   13.7268    0.1016   14.0513    0.1045    0.0000    0.0000
  0.500   14.5047    0.1134   14.2912    0.1111   11.7695    0.0833   11.2335    0.0758   13.7406    0.1061   14.0654    0.1091    0.0000    0.0000
  0.520   14.5200    0.1182   14.3062    0.1159   11.7808    0.0868   11.2437    0.0790   13.7550    0.1106   14.0802    0.1137    0.0000    0.0000
  0.540   14.5360    0.1231   14.3219    0.1206   11.7925    0.0904   11.2544    0.0822   13.7699    0.1151   14.0956    0.1184    0.0000    0.0000
  0.560   14.5527    0.1280   14.3382    0.1254   11.8047    0.0940   11.2656    0.0855   13.7855    0.1197   14.1116    0.1231    0.0000    0.0000
  0.580   14.5700    0.1329   14.3552    0.1303   11.8174    0.0976   11.2771    0.0887   13.8017    0.1243   14.1282    0.1278    0.0000    0.0000
  0.600   14.5879    0.1379   14.3728    0.1351   11.8306    0.1012   11.2891    0.0920   13.8185    0.1290   14.1455    0.1326    0.0000    0.0000
  0.620   14.6065    0.1429   14.3910    0.1400   11.8443    0.1049   11.3015    0.0953   13.8359    0.1337   14.1634    0.1374    0.0000    0.0000
  0.640   14.6258    0.1479   14.4099    0.1450   11.8585    0.1086   11.3144    0.0987   13.8539    0.1384   14.1819    0.1423    0.0000    0.0000
  0.660   14.6457    0.1530   14.4294    0.1500   11.8731    0.1123   11.3277    0.1021   13.8726    0.1432   14.2011    0.1472    0.0000    0.0000
  0.680   14.6664    0.1582   14.4497    0.1550   11.8882    0.1161   11.3415    0.1055   13.8919    0.1480   14.2210    0.1522    0.0000    0.0000
  0.700   14.6877    0.1634   14.4706    0.1601   11.9039    0.1199   11.3557    0.1089   13.9118    0.1529   14.2415    0.1572    0.0000    0.0000
  0.720   14.7097    0.1686   14.4921    0.1653   11.9200    0.1237   11.3704    0.1123   13.9324    0.1578   14.2626    0.1622    0.0000    0.0000
  0.740   14.7324    0.1739   14.5144    0.1705   11.9367    0.1275   11.3855    0.1158   13.9536    0.1627   14.2845    0.1673    0.0000    0.0000
  0.760   14.7558    0.1793   14.5373    0.1757   11.9539    0.1314   11.4011    0.1193   13.9755    0.1677   14.3070    0.1725    0.0000    0.0000
  0.780   14.7799    0.1847   14.5610    0.1810   11.9715    0.1354   11.4172    0.1229   13.9981    0.1728   14.3302    0.1777    0.0000    0.0000
  0.800   14.8048    0.1902   14.5853    0.1864   11.9898    0.1393   11.4337    0.1265   14.0214    0.1779   14.3541    0.1830    0.0000    0.0000
  0.820   14.8303    0.1957   14.6104    0.1918   12.0085    0.1434   11.4507    0.1301   14.0453    0.1831   14.3787    0.1883    0.0000    0.0000
  0.840   14.8566    0.2013   14.6361    0.1973   12.0278    0.1474   11.4682    0.1337   14.0699    0.1883   14.4040    0.1937    0.0000    0.0000
  0.860   14.8837    0.2070   14.6627    0.2028   12.0476    0.1515   11.4862    0.1374   14.0952    0.1936   14.4300    0.1991    0.0000    0.0000
  0.880   14.9115    0.2127   14.6899    0.2084   12.0679    0.1557   11.5047    0.1412   14.1212    0.1990   14.4568    0.2046    0.0000    0.0000
  0.900   14.9401    0.2185   14.7179    0.2141   12.0889    0.1599   11.5236    0.1449   14.1479    0.2044   14.4843    0.2102    0.0000    0.0000
  0.920   14.9694    0.2244   14.7467    0.2199   12.1103    0.1641   11.5431    0.1488   14.1754    0.2099   14.5125    0.2159    0.0000    0.0000
  0.940   14.9995    0.2303   14.7762    0.2257   12.1324    0.1684   11.5631    0.1526   14.2036    0.2155   14.5415    0.2216    0.0000    0.0000
  0.960   15.0304    0.2363   14.8065    0.2316   12.1550    0.1728   11.5836    0.1565   14.2325    0.2211   14.5712    0.2274    0.0000    0.0000
  0.980   15.0622    0.2424   14.8375    0.2376   12.1782    0.1772   11.6046    0.1605   14.2621    0.2268   14.6017    0.2332    0.0000    0.0000
  1.000   15.0947    0.2486   14.8694    0.2436   12.2020    0.1816   11.6261    0.1645   14.2926    0.2326   14.6330    0.2392    0.0000    0.0000
  1.020   15.1280    0.2549   14.9021    0.2498   12.2263    0.1862   11.6482    0.1685   14.3238    0.2384   14.6651    0.2452    0.0000    0.0000
  1.040   15.1622    0.2612   14.9356    0.2560   12.2513    0.1907   11.6708    0.1726   14.3558    0.2444   14.6980    0.2513    0.0000    0.0000
  1.060   15.1972    0.2677   14.9699    0.2623   12.2769    0.1954   11.6940    0.1768   14.3885    0.2504   14.7317    0.2576    0.0000    0.0000
  1.080   15.2331    0.2742   15.0051    0.2687   12.3031    0.2001   11.7177    0.1810   14.4221    0.2565   14.7662    0.2639    0.0000    0.0000
  1.100   15.2699    0.2809   15.0411    0.2752   12.3299    0.2049   11.7420    0.1852   14.4565    0.2627   14.8016    0.2702    0.0000    0.0000
  1.120   15.3075    0.2876   15.0780    0.2818   12.3574    0.2097   11.7668    0.1896   14.4917    0.2690   14.8378    0.2767    0.0000    0.0000
  1.140   15.3461    0.2945   15.1157    0.2885   12.3855    0.2146   11.7922    0.1939   14.5277    0.2754   14.8749    0.2833    0.0000    0.0000
  1.160   15.3855    0.3014   15.1544    0.2953   12.4143    0.2196   11.8182    0.1984   14.5646    0.2819   14.9128    0.2900    0.0000    0.0000
  1.180   15.4259    0.3085   15.1939    0.3022   12.4437    0.2247   11.8448    0.2029   14.6024    0.2885   14.9517    0.2968    0.0000    0.0000
  1.200   15.4672    0.3156   15.2344    0.3092   12.4738    0.2298   11.8720    0.2074   14.6411    0.2953   14.9914    0.3037    0.0000    0.0000
  1.220   15.5095    0.3229   15.2758    0.3164   12.5046    0.2350   11.8998    0.2121   14.6806    0.3021   15.0321    0.3108    0.0000    0.0000
  1.240   15.5527    0.3304   15.3182    0.3236   12.5360    0.2403   11.9282    0.2168   14.7210    0.3090   15.0737    0.3179    0.0000    0.0000
  1.260   15.5969    0.3379   15.3615    0.3310   12.5682    0.2457   11.9572    0.2215   14.7624    0.3161   15.1163    0.3252    0.0000    0.0000
  1.280   15.6422    0.3456   15.4058    0.3385   12.6011    0.2512   11.9869    0.2264   14.8047    0.3232   15.1598    0.3326    0.0000    0.0000
  1.300   15.6884    0.3534   15.4512    0.3462   12.6347    0.2567   12.0172    0.2313   14.8480    0.3305   15.2043    0.3401    0.0000    0.0000
  1.320   15.7357    0.3613   15.4975    0.3540   12.6691    0.2624   12.0482    0.2363   14.8922    0.3380   15.2498    0.3477    0.0000    0.0000
  1.340   15.7841    0.3694   15.5448    0.3619   12.7042    0.2681   12.0798    0.2414   14.9374    0.3455   15.2963    0.3555    0.0000    0.0000
  1.360   15.8335    0.3777   15.5933    0.3699   12.7401    0.2740   12.1122    0.2466   14.9837    0.3532   15.3439    0.3635    0.0000    0.0000
  1.380   15.8840    0.3861   15.6427    0.3782   12.7768    0.2800   12.1452    0.2518   15.0309    0.3611   15.3925    0.3716    0.0000    0.0000
  1.400   15.9356    0.3946   15.6933    0.3865   12.8142    0.2860   12.1789    0.2572   15.0792    0.3691   15.4422    0.3798    0.0000    0.0000
  1.420   15.9884    0.4033   15.7450    0.3951   12.8525    0.2922   12.2133    0.2626   15.1286    0.3772   15.4930    0.3882    0.0000    0.0000
  1.440   16.0423    0.4122   15.7978    0.4038   12.8916    0.2985   12.2484    0.2681   15.1790    0.3856   15.5449    0.3968    0.0000    0.0000
  1.460   16.0975    0.4213   15.8518    0.4126   12.9315    0.3049   12.2843    0.2738   15.2306    0.3940   15.5979    0.4055    0.0000    0.0000
  1.480   16.1538    0.4305   15.9070    0.4217   12.9723    0.3114   12.3209    0.2795   15.2833    0.4027   15.6522    0.4144    0.0000    0.0000
  1.500   16.2113    0.4400   15.9634    0.4309   13.0139    0.3181   12.3583    0.2853   15.3371    0.4115   15.7076    0.4235    0.0000    0.0000
  1.520   16.2701    0.4496   16.0209    0.4403   13.0565    0.3249   12.3965    0.2913   15.3921    0.4205   15.7642    0.4328    0.0000    0.0000
  1.540   16.3302    0.4595   16.0798    0.4500   13.0999    0.3318   12.4354    0.2973   15.4483    0.4297   15.8220    0.4423    0.0000    0.0000
  1.560   16.3916    0.4695   16.1399    0.4598   13.1442    0.3389   12.4752    0.3035   15.5057    0.4391   15.8811    0.4520    0.0000    0.0000
  1.580   16.4543    0.4798   16.2013    0.4698   13.1895    0.3461   12.5158    0.3098   15.5644    0.4487   15.9415    0.4619    0.0000    0.0000
  1.600   16.5184    0.4903   16.2641    0.4801   13.2358    0.3534   12.5572    0.3162   15.6243    0.4585   16.0032    0.4720    0.0000    0.0000
  1.620   16.5839    0.5010   16.3282    0.4906   13.2830    0.3609   12.5994    0.3227   15.6855    0.4685   16.0662    0.4824    0.0000    0.0000
  1.640   16.6508    0.5119   16.3937    0.5013   13.3312    0.3686   12.6426    0.3294   15.7481    0.4788   16.1306    0.4930    0.0000    0.0000
  1.660   16.7192    0.5231   16.4607    0.5122   13.3805    0.3764   12.6866    0.3362   15.8120    0.4893   16.1965    0.5038    0.0000    0.0000
  1.680   16.7890    0.5346   16.5291    0.5235   13.4307    0.3844   12.7315    0.3431   15.8774    0.5000   16.2637    0.5149    0.0000    0.0000
  1.700   16.8604    0.5464   16.5990    0.5349   13.4821    0.3926   12.7774    0.3502   15.9441    0.5110   16.3325    0.5262    0.0000    0.0000
  1.720   16.9333    0.5584   16.6704    0.5467   13.5345    0.4010   12.8242    0.3574   16.0123    0.5222   16.4027    0.5378    0.0000    0.0000
  1.740   17.0079    0.5707   16.7433    0.5587   13.5881    0.4096   12.8719    0.3648   16.0820    0.5337   16.4745    0.5497    0.0000    0.0000
  1.760   17.0840    0.5833   16.8179    0.5711   13.6428    0.4183   12.9206    0.3724   16.1532    0.5455   16.5478    0.5619    0.0000    0.0000
  1.780   17.1618    0.5962   16.8941    0.5837   13.6986    0.4273   12.9704    0.3801   16.2260    0.5576   16.6228    0.5744    0.0000    0.0000
  1.800   17.2414    0.6095   16.9720    0.5967   13.7556    0.4365   13.0211    0.3880   16.3004    0.5700   16.6994    0.5872    0.0000    0.0000
  1.820   17.3227    0.6231   17.0516    0.6099   13.8139    0.4459   13.0730    0.3961   16.3764    0.5827   16.7777    0.6003    0.0000    0.0000
  1.840   17.4058    0.6370   17.1329    0.6236   13.8734    0.4556   13.1258    0.4043   16.4542    0.5957   16.8578    0.6138    0.0000    0.0000
  1.860   17.4907    0.6513   17.2161    0.6375   13.9342    0.4654   13.1798    0.4128   16.5336    0.6091   16.9396    0.6277    0.0000    0.0000
  1.880   17.5776    0.6660   17.3011    0.6519   13.9963    0.4756   13.2349    0.4214   16.6148    0.6228   17.0233    0.6419    0.0000    0.0000
  1.900   17.6664    0.6811   17.3880    0.6666   14.0597    0.4860   13.2912    0.4302   16.6978    0.6369   17.1088    0.6565    0.0000    0.0000
  1.920   17.7571    0.6966   17.4768    0.6818   14.1245    0.4966   13.3486    0.4393   16.7827    0.6514   17.1963    0.6715    0.0000    0.0000
  1.940   17.8500    0.7125   17.5677    0.6973   14.1907    0.5076   13.4072    0.4486   16.8695    0.6663   17.2858    0.6869    0.0000    0.0000
  1.960   17.9449    0.7289   17.6606    0.7133   14.2584    0.5188   13.4671    0.4581   16.9583    0.6816   17.3773    0.7027    0.0000    0.0000
  1.980   18.0420    0.7457   17.7556    0.7298   14.3275    0.5303   13.5282    0.4679   17.0491    0.6974   17.4709    0.7191    0.0000    0.0000
  2.000   18.1413    0.7631   17.8528    0.7467   14.3982    0.5422   13.5906    0.4779   17.1420    0.7136   17.5667    0.7359    0.0000    0.0000
  2.020   18.2430    0.7809   17.9523    0.7641   14.4705    0.5544   13.6543    0.4881   17.2370    0.7302   17.6646    0.7531    0.0000    0.0000
  2.040   18.3469    0.7992   18.0540    0.7821   14.5443    0.5669   13.7194    0.4987   17.3343    0.7474   17.7649    0.7710    0.0000    0.0000
  2.060   18.4533    0.8182   18.1581    0.8005   14.6198    0.5798   13.7859    0.5095   17.4337    0.7651   17.8675    0.7893    0.0000    0.0000
  2.080   18.5622    0.8377   18.2647    0.8196   14.6971    0.5930   13.8538    0.5206   17.5356    0.7833   17.9725    0.8082    0.0000    0.0000
  2.100   18.6737    0.8578   18.3737    0.8392   14.7760    0.6067   13.9232    0.5320   17.6398    0.8021   18.0801    0.8278    0.0000    0.0000
  2.120   18.7878    0.8785   18.4854    0.8595   14.8568    0.6208   13.9941    0.5437   17.7465    0.8215   18.1901    0.8479    0.0000    0.0000
  2.140   18.9046    0.8999   18.5997    0.8803   14.9394    0.6353   14.0666    0.5558   17.8558    0.8415   18.3029    0.8687    0.0000    0.0000
  2.160   19.0243    0.9220   18.7167    0.9019   15.0239    0.6502   14.1406    0.5682   17.9676    0.8621   18.4184    0.8902    0.0000    0.0000
  2.180   19.1468    0.9448   18.8366    0.9242   15.1104    0.6656   14.2163    0.5809   18.0823    0.8835   18.5367    0.9124    0.0000    0.0000
  2.200   19.2724    0.9684   18.9595    0.9472   15.1990    0.6815   14.2937    0.5941   18.1997    0.9055   18.6579    0.9354    0.0000    0.0000
  2.220   19.4010    0.9927   19.0853    0.9710   15.2896    0.6979   14.3728    0.6076   18.3200    0.9283   18.7821    0.9591    0.0000    0.0000
  2.240   19.5329    1.0180   19.2143    0.9956   15.3824    0.7149   14.4536    0.6215   18.4433    0.9519   18.9095    0.9837    0.0000    0.0000
  2.260   19.6681    1.0440   19.3465    1.0211   15.4774    0.7324   14.5364    0.6359   18.5697    0.9763   19.0400    1.0092    0.0000    0.0000
  2.280   19.8067    1.0711   19.4820    1.0475   15.5747    0.7505   14.6210    0.6507   18.6993    1.0016   19.1739    1.0356    0.0000    0.0000
  2.300   19.9488    1.0991   19.6210    1.0748   15.6744    0.7693   14.7075    0.6659   18.8322    1.0278   19.3113    1.0629    0.0000    0.0000
  2.320   20.0946    1.1281   19.7636    1.1032   15.7765    0.7887   14.7961    0.6817   18.9685    1.0549   19.4522    1.0913    0.0000    0.0000
  2.340   20.2442    1.1582   19.9099    1.1326   15.8812    0.8088   14.8868    0.6979   19.1084    1.0831   19.5968    1.1208    0.0000    0.0000
  2.360   20.3977    1.1895   20.0600    1.1631   15.9885    0.8296   14.9795    0.7147   19.2520    1.1123   19.7453    1.1514    0.0000    0.0000
  2.380   20.5553    1.2220   20.2142    1.1948   16.0986    0.8512   15.0745    0.7321   19.3993    1.1427   19.8978    1.1833    0.0000    0.0000
  2.400   20.7171    1.2557   20.3724    1.2277   16.2114    0.8736   15.1718    0.7501   19.5507    1.1742   20.0544    1.2164    0.0000    0.0000
  2.420   20.8834    1.2908   20.5349    1.2620   16.3272    0.8969   15.2714    0.7686   19.7061    1.2070   20.2153    1.2509    0.0000    0.0000
  2.440   21.0541    1.3273   20.7019    1.2976   16.4460    0.9211   15.3735    0.7879   19.8658    1.2411   20.3807    1.2868    0.0000    0.0000
  2.460   21.2297    1.3653   20.8735    1.3347   16.5680    0.9462   15.4781    0.8078   20.0300    1.2767   20.5507    1.3243    0.0000    0.0000
  2.480   21.4101    1.4050   21.0499    1.3734   16.6932    0.9724   15.5853    0.8284   20.1987    1.3137   20.7256    1.3633    0.0000    0.0000
  2.500   21.5957    1.4463   21.2314    1.4137   16.8218    0.9996   15.6952    0.8498   20.3723    1.3523   20.9055    1.4042    0.0000    0.0000
  2.520   21.7867    1.4894   21.4180    1.4558   16.9540    1.0280   15.8078    0.8720   20.5509    1.3927   21.0906    1.4468    0.0000    0.0000
  2.540   21.9832    1.5345   21.6101    1.4998   17.0898    1.0576   15.9234    0.8951   20.7346    1.4348   21.2813    1.4915    0.0000    0.0000
  2.560   22.1855    1.5816   21.8078    1.5458   17.2294    1.0885   16.0420    0.9190   20.9238    1.4788   21.4776    1.5382    0.0000    0.0000
  2.580   22.3939    1.6309   22.0115    1.5939   17.3730    1.1208   16.1637    0.9439   21.1187    1.5248   21.6800    1.5872    0.0000    0.0000
  2.600   22.6085    1.6825   22.2213    1.6443   17.5208    1.1545   16.2886    0.9698   21.3194    1.5730   21.8886    1.6387    0.0000    0.0000
  2.620   22.8298    1.7367   22.4376    1.6971   17.6729    1.1899   16.4169    0.9968   21.5264    1.6235   22.1037    1.6927    0.0000    0.0000
  2.640   23.0581    1.7935   22.6606    1.7526   17.8295    1.2269   16.5487    1.0249   21.7398    1.6765   22.3257    1.7495    0.0000    0.0000
  2.660   23.2935    1.8531   22.8907    1.8108   17.9908    1.2657   16.6842    1.0542   21.9600    1.7322   22.5548    1.8094    0.0000    0.0000
  2.680   23.5365    1.9159   23.1281    1.8721   18.1571    1.3065   16.8234    1.0847   22.1872    1.7907   22.7915    1.8724    0.0000    0.0000
  2.700   23.7875    1.9819   23.3734    1.9365   18.3285    1.3494   16.9666    1.1167   22.4219    1.8523   23.0361    1.9390    0.0000    0.0000
  2.720   24.0468    2.0516   23.6267    2.0045   18.5054    1.3945   17.1138    1.1501   22.6644    1.9171   23.2889    2.0094    0.0000    0.0000
  2.740   24.3148    2.1250   23.8886    2.0763   18.6879    1.4421   17.2654    1.1850   22.9150    1.9855   23.5505    2.0840    0.0000    0.0000
  2.760   24.5920    2.2027   24.1594    2.1521   18.8764    1.4923   17.4214    1.2216   23.1742    2.0577   23.8213    2.1631    0.0000    0.0000
  2.780   24.8790    2.2848   24.4397    2.2323   19.0711    1.5453   17.5821    1.2599   23.4425    2.1341   24.1017    2.2470    0.0000    0.0000
  2.800   25.1760    2.3719   24.7300    2.3173   19.2724    1.6015   17.7477    1.3002   23.7203    2.2149   24.3924    2.3364    0.0000    0.0000
  2.820   25.4838    2.4643   25.0306    2.4075   19.4806    1.6611   17.9185    1.3424   24.0081    2.3006   24.6938    2.4317    0.0000    0.0000
  2.840   25.8030    2.5625   25.3424    2.5035   19.6961    1.7243   18.0945    1.3869   24.3066    2.3916   25.0066    2.5334    0.0000    0.0000
  2.860   26.1340    2.6671   25.6658    2.6056   19.9192    1.7916   18.2762    1.4338   24.6161    2.4883   25.3314    2.6424    0.0000    0.0000
  2.880   26.4777    2.7786   26.0015    2.7147   20.1505    1.8634   18.4638    1.4831   24.9375    2.5913   25.6689    2.7593    0.0001    0.0000
  2.900   26.8347    2.8978   26.3502    2.8312   20.3902    1.9400   18.6576    1.5353   25.2714    2.7012   26.0198    2.8850    0.0002    0.0000
  2.920   27.2059    3.0255   26.7127    2.9560   20.6390    2.0221   18.8579    1.5904   25.6185    2.8187   26.3849    3.0206    0.0004    0.0000
  2.940   27.5919    3.1626   27.0898    3.0900   20.8972    2.1102   19.0650    1.6488   25.9797    2.9444   26.7650    3.1673    0.0008    0.0000
  2.960   27.9938    3.3100   27.4823    3.2341   21.1655    2.2049   19.2793    1.7107   26.3557    3.0793   27.1610    3.3263    0.0017    0.0000
  2.980   28.4124    3.4689   27.8911    3.3896   21.4444    2.3072   19.5012    1.7764   26.7475    3.2243   27.5737    3.4995    0.0033    0.0000
  3.000   28.8488    3.6407   28.3173    3.5578   21.7345    2.4179   19.7311    1.8463   27.1562    3.3805   28.0040    3.6885    0.0063    0.0000
  3.020   29.3039    3.8271   28.7618    3.7401   22.0363    2.5380   19.9695    1.9209   27.5827    3.5492   28.4527    3.8957    0.0115    0.0000
  3.040   29.7788    4.0296   29.2256    3.9385   22.3505    2.6688   20.2168    2.0005   28.0282    3.7318   28.9206    4.1236    0.0205    0.0000
  3.060   30.2746    4.2506   29.7098    4.1550   22.6776    2.8119   20.4736    2.0857   28.4940    3.9300   29.4083    4.3755    0.0351    0.0001
  3.080   30.7924    4.4925   30.2154    4.3920   23.0181    2.9687   20.7404    2.1771   28.9814    4.1456   29.9162    4.6548    0.0582    0.0001
  3.100   31.3330    4.7580   30.7434    4.6524   23.3723    3.1415   21.0179    2.2753   29.4918    4.3810   30.4441    4.9660    0.0931    0.0002
  3.120   31.8974    5.0507   31.2945    4.9395   23.7406    3.3325   21.3066    2.3812   30.0268    4.6387   30.9913    5.3141    0.1437    0.0003
  3.140   32.4859    5.3743   31.8692    5.2571   24.1227    3.5444   21.6072    2.4955   30.5877    4.9218   31.5559    5.7048    0.2145    0.0004
  3.160   33.0987    5.7332   32.4675    5.6097   24.5181    3.7803   21.9205    2.6194   31.1763    5.2337   32.1347    6.1448    0.3091    0.0007
  3.180   33.7351    6.1326   33.0888    6.0021   24.9252    4.0436   22.2473    2.7539   31.7942    5.5789   32.7220    6.6409    0.4308    0.0010
  3.200   34.3934    6.5776   33.7314    6.4397   25.3420    4.3377   22.5884    2.9006   32.4430    5.9621   33.3093    7.1998    0.5806    0.0014
  3.220   35.0706    7.0737   34.3924    6.9279   25.7646    4.6660   22.9446    3.0610   33.1240    6.3894   33.8843    7.8266    0.7576    0.0020
  3.240   35.7623    7.6257   35.0673    7.4717   26.1882    5.0308   23.3168    3.2370   33.8384    6.8677   34.4302    8.5228    0.9583    0.0027
  3.260   36.4627    8.2369   35.7501    8.0743   26.6061    5.4324   23.7059    3.4308   34.5868    7.4055   34.9269    9.2829    1.1770    0.0035
  3.280   37.1652    8.9079   36.4346    8.7368   27.0118    5.8684   24.1127    3.6452   35.3691    8.0126   35.3538   10.0906    1.4070    0.0046
  3.300   37.8651    9.6360   37.1157    9.4568   27.4001    6.3320   24.5381    3.8832   36.1836    8.7009   35.6966   10.9163    1.6424    0.0058
  3.320   38.5622   10.4160   37.7926   10.2297   27.7704    6.8139   24.9825    4.1487   37.0270    9.4841   35.9569   11.7194    1.8803    0.0072
  3.340   39.2631   11.2441   38.4714   11.0521   28.1296    7.3044   25.4464    4.4461   37.8927   10.3779   36.1611   12.4584    2.1227    0.0087
  3.360   39.9813   12.1232   39.1639   11.9272   28.4914    7.8001   25.9296    4.7808   38.7701   11.4001   36.3611   13.1080    2.3786    0.0105
  3.380   40.7314   13.0684   39.8833   12.8702   28.8720    8.3073   26.4312    5.1591   39.6428   12.5692   36.6212   13.6745    2.6642    0.0124
  3.400   41.5215   14.1073   40.6355   13.9078   29.2827    8.8435   26.9493    5.5886   40.4869   13.9030   36.9969   14.1987    3.0030    0.0146
  3.420   42.3463   15.2753   41.4130   15.0740   29.7240    9.4319   27.4802    6.0778   41.2699   15.4155   37.5181   14.7441    3.4229    0.0171
  3.440   43.1846   16.6076   42.1924   16.4016   30.1847   10.0944   28.0178    6.6366   41.9511   17.1123   38.1843   15.3797    3.9539    0.0200
  3.460   44.0017   18.1336   42.9372   17.9163   30.6448   10.8464   28.5529    7.2758   42.4850   18.9860   38.9705   16.1667    4.6229    0.0234
  3.480   44.7533   19.8728   43.6018   19.6329   31.0809   11.6937   29.0711    8.0059   42.8283   21.0139   39.8351   17.1537    5.4504    0.0275
  3.500   45.3883   21.8351   44.1359   21.5548   31.4707   12.6345   29.5523    8.8361   42.9482   23.1614   40.7256   18.3762    6.4456    0.0322
  3.520   45.8495   24.0208   44.4853   23.6756   31.7958   13.6626   29.9690    9.7709   42.8261   25.3923   41.5807   19.8566    7.6040    0.0378
  3.540   46.0705   26.4186   44.5897   25.9783   32.0398   14.7710   30.2865   10.8056   42.4488   27.6790   42.3312   21.6020    8.9056    0.0443
  3.560   45.9737   28.9969   44.3793   28.4269   32.1845   15.9518   30.4658   11.9204   41.7933   29.9999   42.9019   23.5996   10.3157    0.0519
  3.580   45.4770   31.6874   43.7825   30.9515   32.2088   17.1906   30.4717   13.0745   40.8185   32.3196   43.2193   25.8111   11.7874    0.0606
  3.600   44.5185   34.3748   42.7485   33.4395   32.0947   18.4624   30.2866   14.2058   39.4807   34.5662   43.2235   28.1719   13.2659    0.0703
  3.620   43.0903   36.9075   41.2789   35.7473   31.8348   19.7348   29.9254   15.2409   37.7679   36.6290   42.8812   30.5997   14.6943    0.0811
  3.640   41.2607   39.1357   39.4443   37.7361   31.4356   20.9770   29.4429   16.1179   35.7263   38.3864   42.1894   33.0107   16.0200    0.0929
  3.660   39.1600   40.9609   37.3703   39.3139   30.9100   22.1673   28.9219   16.8113   33.4573   39.7477   41.1666   35.3325   17.2011    0.1055
  3.680   36.9346   42.3593   35.1988   40.4519   30.2690   23.2895   28.4445   17.3440   31.0838   40.6759   39.8398   37.5031   18.2115    0.1189
  3.700   34.7018   43.3630   33.0562   41.1713   29.5222   24.3245   28.0636   17.7750   28.7190   41.1779   38.2437   39.4596   19.0442    0.1329
  3.720   32.5402   44.0218   31.0462   41.5212   28.6876   25.2481   27.7910   18.1727   26.4588   41.2832   36.4375   41.1369   19.7129    0.1474
  3.740   30.5107   44.3830   29.2560   41.5715   27.7991   26.0413   27.6063   18.5916   24.3909   41.0365   34.5177   42.4878   20.2507    0.1623
  3.760   28.6733   44.5029   27.7537   41.4177   26.9012   26.7036   27.4747   19.0625   22.5969   40.5067   32.6082   43.5171   20.7057    0.1775
  3.780   27.0782   44.4647   26.5739   41.1808   26.0346   27.2599   27.3622   19.5964   21.1365   39.7933   30.8213   44.2997   21.1344    0.1930
  3.800   25.7390   44.3779   25.7005   40.9931   25.2192   27.7543   27.2416   20.1952   20.0284   39.0148   29.2101   44.9659   21.5926    0.2089
  3.820   24.6146   44.3520   25.0625   40.9713   24.4451   28.2342   27.0879   20.8588   19.2447   38.2844   27.7426   45.6547   22.1260    0.2252
  3.840   23.6153   44.4628   24.5456   41.1924   23.6764   28.7315   26.8701   21.5829   18.7246   37.6901   26.3115   46.4620   22.7594    0.2419
  3.860   22.6299   44.7318   24.0145   41.6788   22.8640   29.2513   26.5521   22.3485   18.3909   37.2931   24.7719   47.4076   23.4897    0.2592
  3.880   21.5572   45.1277   23.3365   42.3972   21.9610   29.7708   26.1040   23.1137   18.1559   37.1337   22.9863   48.4305   24.2813    0.2770
  3.900   20.3252   45.5836   22.4007   43.2627   20.9346   30.2433   25.5201   23.8192   17.9160   37.2298   20.8598   49.4043   25.0670    0.2954
  3.920   18.8952   46.0167   21.1371   44.1503   19.7738   30.6056   24.8274   24.4071   17.5513   37.5621   18.3634   50.1635   25.7548    0.3144
  3.940   17.2554   46.3384   19.5300   44.9129   18.4968   30.7854   24.0780   24.8411   16.9421   38.0538   15.5457   50.5353   26.2402    0.3337
  3.960   15.4182   46.4540   17.6229   45.4049   17.1566   30.7144   23.3292   25.1146   16.0032   38.5646   12.5290   50.3744   26.4224    0.3531
  3.980   13.4291   46.2603   15.5124   45.5030   15.8414   30.3456   22.6267   25.2413   14.7244   38.9082    9.4916   49.5914   26.2217    0.3723
  4.000   11.3839   45.6590   13.3387   45.1222   14.6632   29.6727   22.0025   25.2392   13.1968   38.8994    6.6398   48.1712   25.5960    0.3912
  4.020    9.4351   44.5895   11.2734   44.2315   13.7348   28.7406   21.4857   25.1235   11.6040   38.4140    4.1763   46.1795   24.5517    0.4092
  4.040    7.7692   43.0659    9.4984   42.8686   13.1434   27.6414   21.1136   24.9131   10.1759   37.4350    2.2665   43.7545   23.1480    0.4262
  4.060    6.5592   41.1934    8.1737   41.1449   12.9311   26.4948   20.9287   24.6459    9.1214   36.0606    1.0113   41.0851   21.4923    0.4420
  4.080    5.9141   39.1479    7.4022   39.2298   13.0902   25.4241   20.9627   24.3862    8.5720   34.4686    0.4328   38.3774   19.7276    0.4565
  4.100    5.8545   37.1292    7.2088   37.3161   13.5707   24.5347   21.2184   24.2166    8.5626   32.8608    0.4792   35.8184   18.0133    0.4698
  4.120    6.3206   35.3142    7.5428   35.5802   14.2956   23.9028   21.6609   24.2200    9.0467   31.4141    1.0461   33.5501   16.5039    0.4819
  4.140    7.2016   33.8287    8.3005   34.1538   15.1754   23.5722   22.2221   24.4602    9.9285   30.2562    2.0046   31.6603   15.3274    0.4932
  4.160    8.3678   32.7416    9.3535   33.1133   16.1188   23.5575   22.8123   24.9692   11.0934   29.4632    3.2244   30.1867   14.5701    0.5039
  4.180    9.6928   32.0726   10.5731   32.4842   17.0398   23.8474   23.3362   25.7415   12.4281   29.0688    4.5881   29.1278   14.2674    0.5143
  4.200   11.0679   31.8033   11.8460   32.2501   17.8625   24.4076   23.7082   26.7340   13.8295   29.0754    5.9983   28.4531   14.4036    0.5249
  4.220   12.4095   31.8891   13.0860   32.3649   18.5280   25.1829   23.8681   27.8731   15.2085   29.4620    7.3828   28.1124   14.9204    0.5359
  4.240   13.6652   32.2709   14.2408   32.7668   19.0023   26.1043   23.7942   29.0676   16.4939   30.1897    8.6984   28.0442   15.7305    0.5475
  4.260   14.8155   32.8895   15.2945   33.3951   19.2812   27.0998   23.5079   30.2295   17.6358   31.2082    9.9335   28.1897   16.7355    0.5598
  4.280   15.8699   33.7017   16.2609   34.2093   19.3886   28.1089   23.0680   31.2960   18.6082   32.4665   11.1022   28.5075   17.8429    0.5729
  4.300   16.8518   34.6937   17.1657   35.2017   19.3658   29.0941   22.5514   32.2459   19.4044   33.9228   12.2291   28.9836   18.9805    0.5868
  4.320   17.7786   35.8841   18.0242   36.3976   19.2578   30.0421   22.0271   33.1020   20.0274   35.5515   13.3325   29.6290   20.1060    0.6016
  4.340   18.6415   37.3128   18.8230   37.8423   19.1045   30.9586   21.5334   33.9176   20.4808   37.3418   14.4140   30.4690   21.2101    0.6172
  4.360   19.3984   39.0203   19.5128   39.5807   18.9386   31.8645   21.0684   34.7514   20.7635   39.2960   15.4584   31.5326   22.3138    0.6336
  4.380   19.9796   41.0294   20.0143   41.6378   18.7813   32.7962   20.5982   35.6450   20.8644   41.4287   16.4361   32.8479   23.4609    0.6508
  4.400   20.3020   43.3337   20.2307   44.0062   18.6331   33.8030   20.0748   36.6101   20.7519   43.7637   17.3025   34.4397   24.7070    0.6690
  4.420   20.2841   45.8977   20.0644   46.6414   18.4649   34.9354   19.4561   37.6298   20.3654   46.3203   17.9963   36.3244   26.1063    0.6882
  4.440   19.8562   48.6633   19.4332   49.4658   18.2185   36.2277   18.7194   38.6707   19.6162   49.0949   18.4398   38.5010   27.6995    0.7085
  4.460   18.9638   51.5568   18.2800   52.3779   17.8187   37.6835   17.8634   39.6988   18.4013   52.0435   18.5455   40.9415   29.5019    0.7302
  4.480   17.5683   54.4933   16.5786   55.2637   17.1918   39.2706   16.9007   40.6902   16.6255   55.0757   18.2287   43.5840   31.4959    0.7534
  4.500   15.6504   57.3802   14.3365   58.0104   16.2839   40.9281   15.8490   41.6350   14.2253   58.0636   17.4248   46.3352   33.6269    0.7781
  4.520   13.2099   60.1271   11.5851   60.5232   15.0691   42.5850   14.7216   42.5383   11.1783   60.8652   16.1029   49.0846   35.8050    0.8044
  4.540   10.2531   62.6517    8.3556   62.7282   13.5402   44.1758   13.5140   43.4142    7.4909   63.3426   14.2641   51.7241   37.9129    0.8323
  4.560    6.7786   64.8659    4.6599   64.5465   11.6924   45.6377   12.1973   44.2668    3.1786   65.3544   11.9245   54.1563   39.8193    0.8615
  4.580    2.7856   66.6455    0.5090   65.8535    9.5210   46.8907   10.7323   45.0652   -1.7281   66.7251    9.1043   56.2796   41.3972    0.8920
  4.600   -1.6814   67.8161   -4.0263   66.4681    7.0488   47.8232    9.1050   45.7385   -7.1354   67.2302    5.8438   57.9678   42.5436    0.9232
  4.620   -6.4783   68.1855   -8.7542   66.2071    4.3643   48.3127    7.3599   46.2055  -12.8238   66.6368    2.2432   59.0775   43.1970    0.9550
  4.640  -11.3449   67.6239  -13.3627   64.9854    1.6317   48.2823    5.5975   46.4258  -18.4316   64.8018   -1.5114   59.4991   43.3489    0.9868
  4.660  -15.9589   66.1432  -17.5051   62.8944   -0.9520   47.7534    3.9307   46.4362  -23.5249   61.7669   -5.1758   59.2239   43.0453    1.0185
  4.680  -20.0392   63.9163  -20.9220   60.1951   -3.2313   46.8495    2.4240   46.3420  -27.7249   57.7804   -8.5270   58.3733   42.3772    1.0496
  4.700  -23.4345   61.2176  -23.5248   57.2291   -5.1450   45.7448    1.0581   46.2652  -30.8150   53.2257  -11.4434   57.1599   41.4617    1.0801
  4.720  -26.1450   58.3256  -25.3974   54.3054   -6.7278   44.5963   -0.2580   46.2856  -32.7727   48.5068  -13.9346   55.8049   40.4179    1.1098
  4.740  -28.2799   55.4465  -26.7336   51.6226   -8.0703   43.5001   -1.6416   46.4096  -33.7279   43.9530  -16.1094   54.4644   39.3425    1.1387
  4.760  -29.9918   52.6897  -27.7537   49.2487   -9.2729   42.4879   -3.1878   46.5769  -33.8904   39.7777  -18.1141   53.1992   38.2915    1.1669
  4.780  -31.4267   50.0812  -28.6405   47.1492  -10.4191   41.5443   -4.9432   46.6910  -33.4834   36.0819  -20.0795   51.9864   37.2728    1.1943
  4.800  -32.6980   47.5867  -29.5095   45.2343  -11.5655   40.6243   -6.9053   46.6507  -32.7030   32.8823  -22.0913   50.7477   36.2495    1.2209
  4.820  -33.8715   45.1348  -30.4115   43.4000  -12.7374   39.6647   -9.0345   46.3674  -31.6994   30.1443  -24.1791   49.3768   35.1543    1.2467
  4.840  -34.9555   42.6421  -31.3468   41.5514  -13.9217   38.5975  -11.2649   45.7696  -30.5756   27.8103  -26.3113   47.7655   33.9106    1.2717
  4.860  -35.9043   40.0444  -32.2795   39.6142  -15.0676   37.3695  -13.5069   44.8063  -29.3963   25.8197  -28.4005   45.8313   32.4542    1.2955
  4.880  -36.6376   37.3225  -33.1475   37.5415  -16.0979   35.9603  -15.6501   43.4563  -28.1999   24.1193  -30.3213   43.5428   30.7519    1.3181
  4.900  -37.0736   34.5127  -33.8751   35.3208  -16.9297   34.3913  -17.5728   41.7394  -27.0089   22.6645  -31.9409   40.9327   28.8123    1.3393
  4.920  -37.1600   31.6956  -34.3874   32.9757  -17.4946   32.7229  -19.1608   39.7236  -25.8338   21.4183  -33.1518   38.0919   26.6872    1.3589
  4.940  -36.8910   28.9702  -34.6253   30.5637  -17.7551   31.0422  -20.3297   37.5212  -24.6755   20.3533  -33.8955   35.1488   24.4644    1.3769
  4.960  -36.3065   26.4255  -34.5615   28.1653  -17.7112   29.4468  -21.0445   35.2724  -23.5288   19.4548  -34.1717   32.2410   22.2534    1.3933
  4.980  -35.4749   24.1216  -34.2071   25.8644  -17.4003   28.0286  -21.3288   33.1202  -22.3906   18.7224  -34.0327   29.4870   20.1680    1.4081
  5.000  -34.4747   22.0845  -33.6067   23.7281  -16.8916   26.8601  -21.2593   31.1823  -21.2678   18.1656  -33.5644   26.9676   18.3087    1.4215
  5.020  -33.3780   20.3109  -32.8223   21.7947  -16.2750   25.9843  -20.9455   29.5321  -20.1812   17.7961  -32.8638   24.7191   16.7491    1.4338
  5.040  -32.2419   18.7769  -31.9155   20.0725  -15.6491   25.4107  -20.5063   28.1933  -19.1647   17.6190  -32.0177   22.7389   15.5279    1.4453
  5.060  -31.1038   17.4477  -30.9342   18.5495  -15.1089   25.1151  -20.0487   27.1463  -18.2615   17.6275  -31.0892   21.0002   14.6480    1.4560
  5.080  -29.9818   16.2879  -29.9086   17.2058  -14.7359   25.0436  -19.6566   26.3411  -17.5191   17.7963  -30.1148   19.4681   14.0829    1.4664
  5.100  -28.8791   15.2692  -28.8548   16.0242  -14.5896   25.1171  -19.3864   25.7094  -16.9798   18.0788  -29.1098   18.1137   13.7876    1.4765
  5.120  -27.7915   14.3750  -27.7827   14.9941  -14.6981   25.2370  -19.2652   25.1730  -16.6691   18.4067  -28.0791   16.9210   13.7121    1.4866
  5.140  -26.7153   13.5994  -26.7013   14.1108  -15.0476   25.2975  -19.2886   24.6520  -16.5813   18.6994  -27.0278   15.8851   13.8147    1.4967
  5.160  -25.6513   12.9428  -25.6221   13.3720  -15.5771   25.2071  -19.4180   24.0788  -16.6721   18.8822  -25.9659   15.0066   14.0714    1.5071
  5.180  -24.6063   12.4076  -24.5583   12.7755  -16.1878   24.9151  -19.5882   23.4160  -16.8648   18.9107  -24.9086   14.2869   14.4790    1.5177
  5.200  -23.5910   11.9952  -23.5248   12.3180  -16.7724   24.4298  -19.7288   22.6686  -17.0724   18.7862  -23.8749   13.7254   15.0521    1.5288
  5.220  -22.6198   11.7051  -22.5379   11.9952  -17.2509   23.8134  -19.7899   21.8801  -17.2269   18.5543  -22.8869   13.3183   15.8143    1.5404
  5.240  -21.7097   11.5342  -21.6156   11.8009  -17.5968   23.1549  -19.7612   21.1109  -17.3011   18.2847  -21.9688   13.0583   16.7853    1.5527
  5.260  -20.8807   11.4751  -20.7780   11.7252  -17.8393   22.5328  -19.6723   20.4113  -17.3117   18.0428  -21.1478   12.9317   17.9681    1.5660
  5.280  -20.1542   11.5140  -20.0470   11.7525  -18.0436   21.9863  -19.5768   19.8001  -17.3069   17.8674  -20.4513   12.9157   19.3397    1.5802
  5.300  -19.5510   11.6283  -19.4429   11.8588  -18.2800   21.5051  -19.5286   19.2573  -17.3442   17.7605  -19.9028   12.9755   20.8473    1.5955
  5.320  -19.0853   11.7858  -18.9798   12.0108  -18.5942   21.0386  -19.5576   18.7331  -17.4697   17.6918  -19.5145   13.0646   22.4114    1.6120
  5.340  -18.7598   11.9474  -18.6602   12.1692  -18.9907   20.5200  -19.6574   18.1684  -17.7046   17.6127  -19.2781   13.1308   23.9352    1.6296
  5.360  -18.5608   12.0745  -18.4715   12.2951  -19.4335   19.8936  -19.7878   17.5195  -18.0429   17.4721  -19.1628   13.1287   25.3172    1.6482
  5.380  -18.4609   12.1377  -18.3882   12.3579  -19.8633   19.1345  -19.8921   16.7733  -18.4566   17.2292  -19.1211   13.0332   26.4650    1.6676
  5.400  -18.4264   12.1228  -18.3776   12.3395  -20.2192   18.2524  -19.9184   15.9492  -18.9053   16.8601  -19.1038   12.8460   27.3058    1.6877
  5.420  -18.4257   12.0296  -18.4066   12.2353  -20.4572   17.2838  -19.8347   15.0869  -19.3448   16.3586  -19.0762   12.5894   27.7935    1.7081
  5.440  -18.4351   11.8673  -18.4467   12.0516  -20.5576   16.2757  -19.6331   14.2321  -19.7336   15.7346  -19.0251   12.2935   27.9105    1.7286
  5.460  -18.4398   11.6486  -18.4782   11.8017  -20.5232   15.2723  -19.3258   13.4236  -20.0382   15.0110  -18.9564   11.9811   27.6660    1.7490
  5.480  -18.4329   11.3845  -18.4908   11.4992  -20.3703   14.3059  -18.9363   12.6873  -20.2373   14.2186  -18.8849   11.6592   27.0921    1.7689
  5.500  -18.4110   11.0812  -18.4794   11.1531  -20.1204   13.3964  -18.4914   12.0351  -20.3227   13.3903  -18.8207   11.3185   26.2394    1.7882
  5.520  -18.3689   10.7396  -18.4378   10.7670  -19.7930   12.5536  -18.0142   11.4682  -20.2963   12.5546  -18.7593   10.9422   25.1727    1.8067
  5.540  -18.2950   10.3610  -18.3538   10.3455  -19.4039   11.7831  -17.5212   10.9825  -20.1657   11.7340  -18.6804   10.5198   23.9670    1.8243
  5.560  -18.1733    9.9537  -18.2125    9.9005  -18.9667   11.0891  -17.0238   10.5737  -19.9396   10.9466  -18.5569   10.0562   22.7038    1.8410
  5.580  -17.9904    9.5363  -18.0032    9.4536  -18.4946   10.4757  -16.5312   10.2393  -19.6280   10.2089  -18.3677    9.5733   21.4652    1.8567
  5.600  -17.7430    9.1345  -17.7267    9.0315  -18.0029    9.9455  -16.0542    9.9782  -19.2445    9.5363  -18.1060    9.1015   20.3271    1.8717
  5.620  -17.4405    8.7736  -17.3958    8.6582  -17.5083    9.4979  -15.6063    9.7870  -18.8063    8.9408  -17.7808    8.6699   19.3522    1.8859
  5.640  -17.1028    8.4719  -17.0317    8.3493  -17.0278    9.1274  -15.2020    9.6580  -18.3341    8.4293  -17.4125    8.2990   18.5825    1.8996
  5.660  -16.7549    8.2365  -16.6593    8.1101  -16.5764    8.8234  -14.8547    9.5772  -17.8486    8.0021  -17.0268    7.9982   18.0353    1.9128
  5.680  -16.4214    8.0637  -16.3019    7.9358  -16.1649    8.5704  -14.5720    9.5249  -17.3697    7.6539  -16.6496    7.7654   17.7033    1.9258
  5.700  -16.1219    7.9398  -15.9781    7.8136  -15.7975    8.3505  -14.3529    9.4789  -16.9138    7.3741  -16.3030    7.5881   17.5586    1.9387
  5.720  -15.8677    7.8447  -15.6991    7.7249  -15.4712    8.1467  -14.1867    9.4200  -16.4932    7.1477  -16.0008    7.4455   17.5627    1.9516
  5.740  -15.6591    7.7558  -15.4668    7.6489  -15.1771    7.9455  -14.0561    9.3362  -16.1141    6.9571  -15.7453    7.3130   17.6764    1.9646
  5.760  -15.4849    7.6548  -15.2731    7.5674  -14.9025    7.7395  -13.9408    9.2252  -15.7754    6.7836  -15.5257    7.1689   17.8711    1.9778
  5.780  -15.3263    7.5333  -15.1023    7.4702  -14.6341    7.5279  -13.8229    9.0953  -15.4682    6.6115  -15.3215    7.0015   18.1355    1.9911
  5.800  -15.1647    7.3962  -14.9374    7.3586  -14.3605    7.3162  -13.6923    8.9637  -15.1778    6.4319  -15.1105    6.8134   18.4772    2.0047
  5.820  -14.9902    7.2583  -14.7675    7.2435  -14.0754    7.1151  -13.5514    8.8513  -14.8881    6.2454  -14.8773    6.6190   18.9194    2.0186
  5.840  -14.8051    7.1367  -14.5925    7.1396  -13.7794    6.9368  -13.4166    8.7740  -14.5870    6.0605  -14.6185    6.4377   19.4921    2.0329
  5.860  -14.6228    7.0424  -14.4227    7.0573  -13.4806    6.7914  -13.3134    8.7356  -14.2703    5.8898  -14.3417    6.2863   20.2223    2.0478
  5.880  -14.4612    6.9755  -14.2738    6.9972  -13.1912    6.6828  -13.2681    8.7226  -13.9406    5.7450  -14.0619    6.1744   21.1242    2.0633
  5.900  -14.3354    6.9246  -14.1589    6.9491  -12.9240    6.6078  -13.2968    8.7062  -13.6052    5.6339  -13.7964    6.1027   22.1928    2.0796
  5.920  -14.2511    6.8705  -14.0831    6.8956  -12.6881    6.5570  -13.3977    8.6503  -13.2726    5.5600  -13.5601    6.0628   23.4009    2.0968
  5.940  -14.2020    6.7936  -14.0403    6.8191  -12.4862    6.5188  -13.5487    8.5235  -12.9506    5.5241  -13.3618    6.0409   24.7009    2.1142
  5.960  -14.1716    6.6815  -14.0152    6.7083  -12.3150    6.4831  -13.7141    8.3106  -12.6460    5.5259  -13.2021    6.0207   26.0287    2.1365
  5.980  -14.1402    6.5333  -13.9898    6.5621  -12.1681    6.4446  -13.8571    8.0169  -12.3658    5.5648  -13.0736    5.9894   27.3094    2.1441
