# GW Macroscopic dielectric function without local field effects 
# Scissor operator energy =  0.8000 [eV]
# Tolerance =  0.0200 0.0200
# npweps  = 59
# npwwfn  = 137
# nbands  = 6
# loband  = 2
# nkibz   = 216
# nkbz    = 216
# Lorentzian broadening =  0.1500 [eV]
# List of q-points for the optical limit:
# q =  0.938821, 0.000000, 0.000000, [Reduced coords] 
# q =  0.000000, 0.938821, 0.000000, [Reduced coords] 
# q =  0.000000, 0.000000, 0.938821, [Reduced coords] 
# q =  0.000000, 0.813043, 0.813043, [Reduced coords] 
# q =  0.813043, 0.000000, 0.813043, [Reduced coords] 
# q =  0.813043, 0.813043, 0.000000, [Reduced coords] 
# omega [eV]    RE(eps(q=1)) IM(eps(q=1) RE(eps(q=2) ) ... DOS   IDOS
  0.000   11.9169    0.0000   11.8886    0.0000   11.0230    0.0000   10.9594    0.0000   11.5980    0.0000   11.7677    0.0000    0.0000    0.0000
  0.020   11.9171    0.0035   11.8888    0.0035   11.0232    0.0031   10.9596    0.0030   11.5983    0.0034   11.7679    0.0034    0.0000    0.0000
  0.040   11.9178    0.0070   11.8895    0.0070   11.0238    0.0061   10.9602    0.0060   11.5989    0.0067   11.7686    0.0069    0.0000    0.0000
  0.060   11.9190    0.0105   11.8907    0.0105   11.0248    0.0092   10.9612    0.0090   11.6000    0.0101   11.7697    0.0103    0.0000    0.0000
  0.080   11.9206    0.0140   11.8923    0.0140   11.0263    0.0122   10.9626    0.0120   11.6016    0.0134   11.7713    0.0138    0.0000    0.0000
  0.100   11.9227    0.0175   11.8944    0.0175   11.0281    0.0153   10.9644    0.0150   11.6036    0.0168   11.7734    0.0172    0.0000    0.0000
  0.120   11.9253    0.0210   11.8969    0.0210   11.0303    0.0184   10.9666    0.0180   11.6061    0.0202   11.7759    0.0207    0.0000    0.0000
  0.140   11.9283    0.0246   11.8999    0.0245   11.0330    0.0214   10.9692    0.0210   11.6090    0.0236   11.7789    0.0241    0.0000    0.0000
  0.160   11.9318    0.0281   11.9034    0.0280   11.0360    0.0245   10.9722    0.0240   11.6123    0.0269   11.7823    0.0276    0.0000    0.0000
  0.180   11.9357    0.0316   11.9074    0.0315   11.0395    0.0276   10.9755    0.0271   11.6161    0.0303   11.7862    0.0311    0.0000    0.0000
  0.200   11.9402    0.0352   11.9118    0.0351   11.0433    0.0307   10.9793    0.0301   11.6203    0.0337   11.7905    0.0346    0.0000    0.0000
  0.220   11.9451    0.0387   11.9167    0.0386   11.0476    0.0338   10.9835    0.0331   11.6250    0.0371   11.7953    0.0380    0.0000    0.0000
  0.240   11.9505    0.0423   11.9220    0.0422   11.0523    0.0369   10.9881    0.0362   11.6302    0.0406   11.8006    0.0415    0.0000    0.0000
  0.260   11.9563    0.0459   11.9279    0.0457   11.0574    0.0400   10.9931    0.0392   11.6358    0.0440   11.8064    0.0451    0.0000    0.0000
  0.280   11.9626    0.0495   11.9342    0.0493   11.0629    0.0431   10.9985    0.0423   11.6419    0.0474   11.8126    0.0486    0.0000    0.0000
  0.300   11.9694    0.0531   11.9409    0.0529   11.0688    0.0463   11.0044    0.0454   11.6484    0.0509   11.8193    0.0521    0.0000    0.0000
  0.320   11.9767    0.0567   11.9482    0.0565   11.0752    0.0494   11.0106    0.0485   11.6554    0.0543   11.8264    0.0557    0.0000    0.0000
  0.340   11.9845    0.0604   11.9559    0.0601   11.0819    0.0526   11.0172    0.0516   11.6628    0.0578   11.8340    0.0593    0.0000    0.0000
  0.360   11.9927    0.0640   11.9641    0.0638   11.0891    0.0558   11.0243    0.0547   11.6707    0.0613   11.8421    0.0628    0.0000    0.0000
  0.380   12.0014    0.0677   11.9728    0.0674   11.0967    0.0590   11.0317    0.0578   11.6791    0.0649   11.8507    0.0665    0.0000    0.0000
  0.400   12.0107    0.0714   11.9820    0.0711   11.1048    0.0622   11.0396    0.0610   11.6879    0.0684   11.8598    0.0701    0.0000    0.0000
  0.420   12.0204    0.0751   11.9917    0.0748   11.1132    0.0654   11.0479    0.0641   11.6972    0.0719   11.8693    0.0737    0.0000    0.0000
  0.440   12.0306    0.0788   12.0019    0.0785   11.1221    0.0686   11.0566    0.0673   11.7070    0.0755   11.8793    0.0774    0.0000    0.0000
  0.460   12.0413    0.0826   12.0125    0.0823   11.1314    0.0719   11.0658    0.0705   11.7172    0.0791   11.8898    0.0811    0.0000    0.0000
  0.480   12.0525    0.0864   12.0237    0.0861   11.1412    0.0752   11.0753    0.0737   11.7280    0.0827   11.9008    0.0848    0.0000    0.0000
  0.500   12.0642    0.0902   12.0354    0.0898   11.1514    0.0785   11.0853    0.0770   11.7392    0.0864   11.9123    0.0885    0.0000    0.0000
  0.520   12.0764    0.0940   12.0475    0.0937   11.1620    0.0818   11.0958    0.0802   11.7509    0.0901   11.9243    0.0923    0.0000    0.0000
  0.540   12.0891    0.0979   12.0602    0.0975   11.1731    0.0852   11.1066    0.0835   11.7631    0.0938   11.9368    0.0961    0.0000    0.0000
  0.560   12.1024    0.1018   12.0734    0.1014   11.1846    0.0886   11.1179    0.0868   11.7758    0.0975   11.9498    0.0999    0.0000    0.0000
  0.580   12.1161    0.1057   12.0871    0.1053   11.1966    0.0920   11.1297    0.0902   11.7889    0.1012   11.9633    0.1038    0.0000    0.0000
  0.600   12.1304    0.1096   12.1013    0.1092   11.2090    0.0954   11.1418    0.0935   11.8026    0.1050   11.9773    0.1076    0.0000    0.0000
  0.620   12.1452    0.1136   12.1161    0.1132   11.2219    0.0988   11.1545    0.0969   11.8168    0.1088   11.9918    0.1115    0.0000    0.0000
  0.640   12.1605    0.1176   12.1313    0.1172   11.2352    0.1023   11.1676    0.1003   11.8315    0.1127   12.0069    0.1155    0.0000    0.0000
  0.660   12.1764    0.1217   12.1471    0.1212   11.2490    0.1058   11.1811    0.1037   11.8467    0.1166   12.0224    0.1195    0.0000    0.0000
  0.680   12.1928    0.1258   12.1635    0.1253   11.2633    0.1094   11.1951    0.1072   11.8624    0.1205   12.0385    0.1235    0.0000    0.0000
  0.700   12.2097    0.1299   12.1804    0.1294   11.2780    0.1129   11.2095    0.1107   11.8786    0.1244   12.0552    0.1275    0.0000    0.0000
  0.720   12.2272    0.1341   12.1978    0.1336   11.2932    0.1165   11.2244    0.1142   11.8954    0.1284   12.0724    0.1316    0.0000    0.0000
  0.740   12.2453    0.1383   12.2158    0.1378   11.3089    0.1202   11.2398    0.1178   11.9127    0.1324   12.0901    0.1358    0.0000    0.0000
  0.760   12.2639    0.1425   12.2343    0.1420   11.3251    0.1239   11.2557    0.1214   11.9305    0.1365   12.1084    0.1399    0.0000    0.0000
  0.780   12.2831    0.1468   12.2534    0.1463   11.3418    0.1276   11.2720    0.1250   11.9489    0.1406   12.1272    0.1442    0.0000    0.0000
  0.800   12.3028    0.1512   12.2731    0.1506   11.3589    0.1313   11.2888    0.1287   11.9678    0.1448   12.1466    0.1484    0.0000    0.0000
  0.820   12.3231    0.1556   12.2934    0.1550   11.3766    0.1351   11.3061    0.1324   11.9872    0.1490   12.1665    0.1527    0.0000    0.0000
  0.840   12.3440    0.1600   12.3142    0.1594   11.3948    0.1389   11.3240    0.1361   12.0073    0.1532   12.1871    0.1571    0.0000    0.0000
  0.860   12.3656    0.1645   12.3356    0.1639   11.4134    0.1428   11.3423    0.1399   12.0279    0.1575   12.2082    0.1615    0.0000    0.0000
  0.880   12.3877    0.1691   12.3577    0.1685   11.4326    0.1467   11.3611    0.1438   12.0490    0.1619   12.2299    0.1660    0.0000    0.0000
  0.900   12.4104    0.1737   12.3803    0.1730   11.4524    0.1507   11.3804    0.1476   12.0708    0.1663   12.2522    0.1705    0.0000    0.0000
  0.920   12.4337    0.1783   12.4035    0.1777   11.4726    0.1547   11.4002    0.1515   12.0931    0.1707   12.2751    0.1751    0.0000    0.0000
  0.940   12.4576    0.1831   12.4274    0.1824   11.4934    0.1588   11.4206    0.1555   12.1160    0.1752   12.2986    0.1797    0.0000    0.0000
  0.960   12.4822    0.1878   12.4518    0.1871   11.5147    0.1629   11.4414    0.1595   12.1395    0.1798   12.3227    0.1844    0.0000    0.0000
  0.980   12.5074    0.1927   12.4770    0.1920   11.5365    0.1670   11.4628    0.1636   12.1637    0.1844   12.3474    0.1891    0.0000    0.0000
  1.000   12.5333    0.1976   12.5027    0.1969   11.5590    0.1712   11.4848    0.1677   12.1884    0.1891   12.3728    0.1940    0.0000    0.0000
  1.020   12.5598    0.2026   12.5291    0.2018   11.5819    0.1755   11.5073    0.1718   12.2138    0.1939   12.3988    0.1988    0.0000    0.0000
  1.040   12.5869    0.2076   12.5562    0.2068   11.6055    0.1798   11.5303    0.1761   12.2398    0.1987   12.4255    0.2038    0.0000    0.0000
  1.060   12.6148    0.2127   12.5839    0.2119   11.6296    0.1842   11.5540    0.1803   12.2664    0.2036   12.4528    0.2088    0.0000    0.0000
  1.080   12.6433    0.2179   12.6123    0.2171   11.6543    0.1886   11.5781    0.1847   12.2937    0.2085   12.4808    0.2139    0.0000    0.0000
  1.100   12.6725    0.2232   12.6414    0.2223   11.6796    0.1932   11.6029    0.1891   12.3217    0.2136   12.5095    0.2191    0.0000    0.0000
  1.120   12.7024    0.2285   12.6712    0.2277   11.7055    0.1977   11.6282    0.1935   12.3503    0.2187   12.5388    0.2243    0.0000    0.0000
  1.140   12.7330    0.2340   12.7017    0.2331   11.7320    0.2024   11.6542    0.1980   12.3796    0.2238   12.5689    0.2296    0.0000    0.0000
  1.160   12.7644    0.2395   12.7330    0.2386   11.7591    0.2071   11.6807    0.2026   12.4096    0.2291   12.5996    0.2350    0.0000    0.0000
  1.180   12.7964    0.2451   12.7649    0.2442   11.7868    0.2118   11.7079    0.2073   12.4403    0.2344   12.6311    0.2405    0.0000    0.0000
  1.200   12.8293    0.2508   12.7976    0.2498   11.8152    0.2167   11.7356    0.2120   12.4717    0.2399   12.6633    0.2461    0.0000    0.0000
  1.220   12.8628    0.2565   12.8311    0.2556   11.8442    0.2216   11.7640    0.2168   12.5038    0.2454   12.6963    0.2518    0.0000    0.0000
  1.240   12.8972    0.2624   12.8653    0.2614   11.8739    0.2266   11.7931    0.2216   12.5367    0.2510   12.7300    0.2576    0.0000    0.0000
  1.260   12.9323    0.2684   12.9003    0.2674   11.9043    0.2317   11.8228    0.2266   12.5703    0.2567   12.7645    0.2634    0.0000    0.0000
  1.280   12.9683    0.2745   12.9361    0.2735   11.9353    0.2369   11.8531    0.2316   12.6046    0.2625   12.7998    0.2694    0.0000    0.0000
  1.300   13.0050    0.2807   12.9727    0.2796   11.9670    0.2421   11.8841    0.2367   12.6398    0.2684   12.8358    0.2755    0.0000    0.0000
  1.320   13.0426    0.2870   13.0101    0.2859   11.9994    0.2475   11.9158    0.2419   12.6757    0.2744   12.8727    0.2817    0.0000    0.0000
  1.340   13.0810    0.2934   13.0484    0.2923   12.0325    0.2529   11.9482    0.2472   12.7124    0.2805   12.9104    0.2880    0.0000    0.0000
  1.360   13.1202    0.2999   13.0875    0.2988   12.0664    0.2585   11.9813    0.2526   12.7499    0.2867   12.9489    0.2944    0.0000    0.0000
  1.380   13.1603    0.3066   13.1275    0.3054   12.1010    0.2641   12.0151    0.2581   12.7883    0.2931   12.9883    0.3009    0.0000    0.0000
  1.400   13.2013    0.3134   13.1683    0.3122   12.1363    0.2698   12.0496    0.2636   12.8275    0.2995   13.0285    0.3075    0.0000    0.0000
  1.420   13.2432    0.3203   13.2101    0.3191   12.1724    0.2757   12.0849    0.2693   12.8676    0.3061   13.0697    0.3143    0.0000    0.0000
  1.440   13.2861    0.3273   13.2527    0.3261   12.2093    0.2816   12.1209    0.2751   12.9085    0.3128   13.1117    0.3212    0.0000    0.0000
  1.460   13.3298    0.3345   13.2963    0.3333   12.2469    0.2877   12.1577    0.2809   12.9503    0.3197   13.1546    0.3283    0.0000    0.0000
  1.480   13.3746    0.3419   13.3409    0.3406   12.2854    0.2938   12.1953    0.2869   12.9931    0.3266   13.1985    0.3355    0.0000    0.0000
  1.500   13.4203    0.3493   13.3864    0.3480   12.3247    0.3001   12.2336    0.2930   13.0367    0.3338   13.2434    0.3428    0.0000    0.0000
  1.520   13.4669    0.3570   13.4329    0.3556   12.3648    0.3066   12.2728    0.2992   13.0813    0.3410   13.2892    0.3503    0.0000    0.0000
  1.540   13.5146    0.3648   13.4804    0.3634   12.4058    0.3131   12.3128    0.3056   13.1269    0.3484   13.3360    0.3580    0.0000    0.0000
  1.560   13.5634    0.3727   13.5290    0.3713   12.4477    0.3198   12.3537    0.3120   13.1735    0.3560   13.3838    0.3658    0.0000    0.0000
  1.580   13.6132    0.3809   13.5786    0.3794   12.4904    0.3266   12.3954    0.3186   13.2210    0.3637   13.4327    0.3737    0.0000    0.0000
  1.600   13.6641    0.3892   13.6293    0.3877   12.5340    0.3336   12.4380    0.3254   13.2696    0.3717   13.4826    0.3819    0.0000    0.0000
  1.620   13.7160    0.3977   13.6811    0.3962   12.5786    0.3407   12.4815    0.3322   13.3193    0.3797   13.5336    0.3902    0.0000    0.0000
  1.640   13.7692    0.4064   13.7340    0.4048   12.6241    0.3480   12.5259    0.3393   13.3700    0.3880   13.5857    0.3988    0.0000    0.0000
  1.660   13.8234    0.4153   13.7880    0.4137   12.6706    0.3554   12.5712    0.3464   13.4218    0.3964   13.6390    0.4075    0.0000    0.0000
  1.680   13.8789    0.4244   13.8432    0.4227   12.7181    0.3630   12.6175    0.3538   13.4747    0.4051   13.6934    0.4164    0.0000    0.0000
  1.700   13.9355    0.4337   13.8997    0.4320   12.7666    0.3707   12.6647    0.3612   13.5288    0.4139   13.7490    0.4255    0.0000    0.0000
  1.720   13.9934    0.4432   13.9573    0.4415   12.8161    0.3787   12.7130    0.3689   13.5841    0.4230   13.8058    0.4349    0.0000    0.0000
  1.740   14.0526    0.4530   14.0163    0.4512   12.8666    0.3868   12.7622    0.3767   13.6405    0.4322   13.8638    0.4445    0.0000    0.0000
  1.760   14.1130    0.4630   14.0765    0.4612   12.9183    0.3951   12.8125    0.3847   13.6982    0.4417   13.9231    0.4543    0.0000    0.0000
  1.780   14.1748    0.4732   14.1380    0.4714   12.9710    0.4036   12.8639    0.3929   13.7571    0.4515   13.9837    0.4643    0.0000    0.0000
  1.800   14.2379    0.4837   14.2009    0.4818   13.0249    0.4123   12.9163    0.4013   13.8174    0.4614   14.0457    0.4746    0.0000    0.0000
  1.820   14.3024    0.4945   14.2652    0.4926   13.0799    0.4212   12.9699    0.4099   13.8789    0.4716   14.1090    0.4852    0.0000    0.0000
  1.840   14.3684    0.5056   14.3308    0.5036   13.1361    0.4304   13.0246    0.4187   13.9418    0.4821   14.1737    0.4961    0.0000    0.0000
  1.860   14.4358    0.5169   14.3980    0.5149   13.1935    0.4397   13.0805    0.4277   14.0061    0.4929   14.2398    0.5072    0.0000    0.0000
  1.880   14.5047    0.5286   14.4666    0.5265   13.2522    0.4493   13.1375    0.4369   14.0718    0.5039   14.3074    0.5186    0.0000    0.0000
  1.900   14.5752    0.5406   14.5368    0.5384   13.3121    0.4592   13.1958    0.4463   14.1390    0.5153   14.3766    0.5304    0.0000    0.0000
  1.920   14.6472    0.5529   14.6086    0.5507   13.3733    0.4693   13.2553    0.4560   14.2077    0.5269   14.4473    0.5424    0.0000    0.0000
  1.940   14.7209    0.5655   14.6820    0.5633   13.4359    0.4797   13.3162    0.4660   14.2779    0.5389   14.5195    0.5548    0.0000    0.0000
  1.960   14.7962    0.5785   14.7570    0.5762   13.4998    0.4904   13.3783    0.4762   14.3497    0.5512   14.5935    0.5676    0.0000    0.0000
  1.980   14.8733    0.5919   14.8338    0.5895   13.5652    0.5013   13.4418    0.4867   14.4232    0.5639   14.6691    0.5807    0.0000    0.0000
  2.000   14.9521    0.6057   14.9123    0.6032   13.6320    0.5126   13.5067    0.4975   14.4983    0.5769   14.7464    0.5942    0.0000    0.0000
  2.020   15.0328    0.6198   14.9926    0.6173   13.7003    0.5241   13.5730    0.5085   14.5751    0.5903   14.8255    0.6081    0.0000    0.0000
  2.040   15.1153    0.6344   15.0748    0.6318   13.7701    0.5360   13.6407    0.5199   14.6537    0.6041   14.9065    0.6224    0.0000    0.0000
  2.060   15.1997    0.6495   15.1589    0.6468   13.8415    0.5483   13.7100    0.5316   14.7341    0.6184   14.9893    0.6372    0.0000    0.0000
  2.080   15.2862    0.6650   15.2449    0.6623   13.9145    0.5609   13.7808    0.5436   14.8164    0.6330   15.0741    0.6524    0.0000    0.0000
  2.100   15.3746    0.6810   15.3330    0.6782   13.9892    0.5739   13.8532    0.5560   14.9007    0.6481   15.1609    0.6681    0.0000    0.0000
  2.120   15.4652    0.6975   15.4233    0.6946   14.0656    0.5873   13.9273    0.5687   14.9869    0.6637   15.2497    0.6843    0.0000    0.0000
  2.140   15.5580    0.7145   15.5156    0.7115   14.1438    0.6010   14.0030    0.5818   15.0751    0.6798   15.3407    0.7010    0.0000    0.0000
  2.160   15.6529    0.7321   15.6102    0.7291   14.2237    0.6153   14.0804    0.5953   15.1655    0.6964   15.4339    0.7182    0.0000    0.0000
  2.180   15.7502    0.7503   15.7071    0.7472   14.3056    0.6299   14.1597    0.6093   15.2581    0.7136   15.5294    0.7361    0.0000    0.0000
  2.200   15.8499    0.7691   15.8064    0.7659   14.3894    0.6451   14.2407    0.6236   15.3529    0.7313   15.6272    0.7545    0.0000    0.0000
  2.220   15.9521    0.7885   15.9081    0.7852   14.4751    0.6607   14.3237    0.6384   15.4501    0.7497   15.7274    0.7736    0.0000    0.0000
  2.240   16.0568    0.8086   16.0124    0.8052   14.5629    0.6768   14.4086    0.6537   15.5496    0.7687   15.8301    0.7934    0.0000    0.0000
  2.260   16.1641    0.8295   16.1193    0.8260   14.6529    0.6935   14.4955    0.6695   15.6517    0.7883   15.9354    0.8138    0.0000    0.0000
  2.280   16.2742    0.8510   16.2289    0.8474   14.7450    0.7108   14.5845    0.6858   15.7563    0.8087   16.0434    0.8350    0.0000    0.0000
  2.300   16.3871    0.8734   16.3413    0.8697   14.8394    0.7287   14.6756    0.7027   15.8636    0.8298   16.1542    0.8570    0.0000    0.0000
  2.320   16.5029    0.8966   16.4566    0.8928   14.9361    0.7472   14.7690    0.7201   15.9737    0.8516   16.2678    0.8798    0.0000    0.0000
  2.340   16.6218    0.9207   16.5750    0.9168   15.0353    0.7663   14.8646    0.7382   16.0866    0.8743   16.3844    0.9034    0.0000    0.0000
  2.360   16.7438    0.9457   16.6964    0.9417   15.1370    0.7862   14.9626    0.7569   16.2024    0.8979   16.5041    0.9280    0.0000    0.0000
  2.380   16.8690    0.9717   16.8212    0.9676   15.2412    0.8068   15.0631    0.7762   16.3214    0.9224   16.6270    0.9536    0.0000    0.0000
  2.400   16.9976    0.9988   16.9492    0.9945   15.3482    0.8282   15.1661    0.7963   16.4435    0.9479   16.7532    0.9801    0.0000    0.0000
  2.420   17.1298    1.0269   17.0808    1.0225   15.4579    0.8504   15.2717    0.8171   16.5690    0.9743   16.8829    1.0078    0.0000    0.0000
  2.440   17.2656    1.0562   17.2161    1.0517   15.5706    0.8735   15.3800    0.8387   16.6978    1.0019   17.0161    1.0366    0.0000    0.0000
  2.460   17.4052    1.0868   17.3551    1.0821   15.6862    0.8975   15.4912    0.8611   16.8303    1.0307   17.1531    1.0667    0.0000    0.0000
  2.480   17.5488    1.1187   17.4980    1.1138   15.8049    0.9224   15.6052    0.8844   16.9665    1.0606   17.2940    1.0980    0.0000    0.0000
  2.500   17.6964    1.1519   17.6450    1.1469   15.9269    0.9485   15.7223    0.9087   17.1065    1.0919   17.4389    1.1307    0.0000    0.0000
  2.520   17.8484    1.1867   17.7963    1.1815   16.0523    0.9756   15.8426    0.9339   17.2506    1.1246   17.5880    1.1649    0.0000    0.0000
  2.540   18.0049    1.2230   17.9521    1.2176   16.1812    1.0039   15.9661    0.9601   17.3989    1.1587   17.7416    1.2007    0.0000    0.0000
  2.560   18.1660    1.2611   18.1125    1.2555   16.3137    1.0334   16.0930    0.9875   17.5516    1.1944   17.8997    1.2382    0.0000    0.0000
  2.580   18.3320    1.3009   18.2778    1.2951   16.4500    1.0643   16.2235    1.0161   17.7088    1.2318   18.0626    1.2774    0.0000    0.0000
  2.600   18.5030    1.3427   18.4481    1.3367   16.5903    1.0966   16.3576    1.0458   17.8709    1.2711   18.2306    1.3186    0.0000    0.0000
  2.620   18.6795    1.3865   18.6237    1.3803   16.7347    1.1304   16.4956    1.0770   18.0380    1.3122   18.4038    1.3618    0.0000    0.0000
  2.640   18.8615    1.4326   18.8049    1.4262   16.8835    1.1658   16.6376    1.1095   18.2103    1.3554   18.5825    1.4073    0.0000    0.0000
  2.660   19.0493    1.4810   18.9919    1.4744   17.0368    1.2029   16.7838    1.1436   18.3880    1.4009   18.7669    1.4551    0.0000    0.0000
  2.680   19.2433    1.5321   19.1850    1.5252   17.1948    1.2420   16.9343    1.1793   18.5716    1.4487   18.9574    1.5055    0.0000    0.0000
  2.700   19.4437    1.5859   19.3845    1.5788   17.3577    1.2830   17.0894    1.2167   18.7612    1.4992   19.1542    1.5587    0.0000    0.0000
  2.720   19.6508    1.6427   19.5907    1.6353   17.5259    1.3262   17.2493    1.2560   18.9571    1.5524   19.3576    1.6148    0.0000    0.0000
  2.740   19.8651    1.7027   19.8040    1.6950   17.6994    1.3717   17.4142    1.2973   19.1596    1.6086   19.5681    1.6742    0.0000    0.0000
  2.760   20.0868    1.7662   20.0248    1.7583   17.8787    1.4197   17.5843    1.3407   19.3692    1.6681   19.7859    1.7371    0.0000    0.0000
  2.780   20.3165    1.8336   20.2533    1.8253   18.0640    1.4705   17.7598    1.3865   19.5862    1.7312   20.0115    1.8039    0.0000    0.0000
  2.800   20.5544    1.9051   20.4902    1.8965   18.2556    1.5242   17.9412    1.4347   19.8109    1.7981   20.2453    1.8748    0.0000    0.0000
  2.820   20.8011    1.9811   20.7357    1.9722   18.4538    1.5811   18.1285    1.4857   20.0439    1.8692   20.4878    1.9503    0.0000    0.0000
  2.840   21.0570    2.0621   20.9905    2.0528   18.6591    1.6416   18.3223    1.5396   20.2855    1.9450   20.7393    2.0308    0.0000    0.0000
  2.860   21.3227    2.1485   21.2550    2.1387   18.8717    1.7058   18.5227    1.5967   20.5363    2.0257   21.0005    2.1168    0.0000    0.0000
  2.880   21.5988    2.2408   21.5298    2.2307   19.0920    1.7743   18.7302    1.6572   20.7968    2.1121   21.2720    2.2088    0.0000    0.0000
  2.900   21.8859    2.3397   21.8156    2.3291   19.3206    1.8474   18.9451    1.7215   21.0675    2.2045   21.5543    2.3075    0.0001    0.0000
  2.920   22.1846    2.4458   22.1129    2.4348   19.5579    1.9255   19.1678    1.7900   21.3492    2.3036   21.8480    2.4136    0.0001    0.0000
  2.940   22.4956    2.5599   22.4225    2.5484   19.8044    2.0093   19.3988    1.8630   21.6424    2.4102   22.1539    2.5280    0.0003    0.0000
  2.960   22.8198    2.6829   22.7452    2.6710   20.0606    2.0993   19.6386    1.9409   21.9479    2.5251   22.4727    2.6515    0.0006    0.0000
  2.980   23.1579    2.8159   23.0817    2.8034   20.3272    2.1962   19.8877    2.0243   22.2664    2.6492   22.8053    2.7853    0.0011    0.0000
  3.000   23.5108    2.9600   23.4329    2.9469   20.6046    2.3008   20.1465    2.1138   22.5988    2.7836   23.1523    2.9306    0.0022    0.0000
  3.020   23.8794    3.1165   23.7999    3.1029   20.8936    2.4140   20.4158    2.2099   22.9459    2.9296   23.5147    3.0890    0.0040    0.0000
  3.040   24.2647    3.2871   24.1834    3.2729   21.1949    2.5370   20.6962    2.3135   23.3088    3.0887   23.8934    3.2621    0.0073    0.0000
  3.060   24.6678    3.4736   24.5846    3.4587   21.5091    2.6710   20.9882    2.4254   23.6883    3.2625   24.2892    3.4520    0.0126    0.0000
  3.080   25.0896    3.6781   25.0045    3.6626   21.8369    2.8174   21.2928    2.5466   24.0855    3.4530   24.7030    3.6609    0.0212    0.0000
  3.100   25.5313    3.9031   25.4441    3.8870   22.1791    2.9779   21.6105    2.6783   24.5014    3.6627   25.1355    3.8917    0.0345    0.0001
  3.120   25.9939    4.1517   25.9044    4.1348   22.5362    3.1546   21.9424    2.8217   24.9371    3.8941   25.5873    4.1477    0.0544    0.0001
  3.140   26.4781    4.4272   26.3864    4.4097   22.9089    3.3498   22.2891    2.9785   25.3936    4.1507   26.0588    4.4325    0.0834    0.0002
  3.160   26.9849    4.7337   26.8908    4.7155   23.2975    3.5661   22.6517    3.1505   25.8718    4.4362   26.5497    4.7505    0.1241    0.0003
  3.180   27.5146    5.0760   27.4179    5.0571   23.7020    3.8068   23.0309    3.3398   26.3723    4.7553   27.0592    5.1066    0.1799    0.0004
  3.200   28.0670    5.4594   27.9677    5.4400   24.1222    4.0754   23.4278    3.5490   26.8955    5.1133   27.5855    5.5062    0.2542    0.0006
  3.220   28.6414    5.8901   28.5393    5.8703   24.5572    4.3757   23.8431    3.7811   27.4410    5.5167   28.1254    5.9548    0.3509    0.0008
  3.240   29.2361    6.3751   29.1310    6.3551   25.0053    4.7121   24.2775    4.0397   28.0076    5.9728   28.6743    6.4575    0.4747    0.0012
  3.260   29.8480    6.9214   29.7396    6.9016   25.4638    5.0887   24.7315    4.3291   28.5927    6.4903   29.2262    7.0182    0.6309    0.0016
  3.280   30.4732    7.5366   30.3610    7.5176   25.9296    5.5091   25.2052    4.6545   29.1918    7.0787   29.7744    7.6388    0.8261    0.0023
  3.300   31.1063    8.2281   30.9897    8.2107   26.3989    5.9767   25.6980    5.0218   29.7978    7.7482   30.3133    8.3187    1.0688    0.0030
  3.320   31.7417    9.0037   31.6191    8.9889   26.8679    6.4943   26.2085    5.4382   30.4005    8.5089   30.8407    9.0557    1.3693    0.0040
  3.340   32.3727    9.8720   32.2421    9.8609   27.3334    7.0646   26.7337    5.9122   30.9858    9.3696   31.3594    9.8493    1.7403    0.0053
  3.360   32.9916   10.8438   32.8497   10.8369   27.7926    7.6921   27.2686    6.4533   31.5369   10.3363   31.8757   10.7060    2.1955    0.0069
  3.380   33.5871   11.9327   33.4295   11.9297   28.2413    8.3830   27.8052    7.0720   32.0351   11.4116   32.3943   11.6421    2.7490    0.0090
  3.400   34.1419   13.1546   33.9635   13.1539   28.6725    9.1455   28.3311    7.7792   32.4620   12.5948   32.9107   12.6831    3.4127    0.0115
  3.420   34.6297   14.5258   34.4248   14.5236   29.0749    9.9887   28.8287    8.5849   32.7998   13.8848   33.4054   13.8581    4.1936    0.0145
  3.440   35.0130   16.0595   34.7758   16.0500   29.4315   10.9204   29.2736    9.4953   33.0285   15.2830   33.8426   15.1913    5.0914    0.0183
  3.460   35.2403   17.7600   34.9654   17.7348   29.7187   11.9448   29.6345   10.5094   33.1184   16.7918   34.1724   16.6953    6.0959    0.0228
  3.480   35.2472   19.6135   34.9300   19.5604   29.9066   13.0579   29.8758   11.6132   33.0247   18.4052   34.3347   18.3644    7.1861    0.0281
  3.500   34.9636   21.5765   34.6026   21.4784   29.9629   14.2429   29.9636   12.7753   32.6908   20.0943   34.2666   20.1697    8.3312    0.0342
  3.520   34.3306   23.5682   33.9312   23.4039   29.8601   15.4675   29.8780   13.9457   32.0646   21.7960   33.9122   22.0555    9.4920    0.0412
  3.540   33.3254   25.4754   32.9028   25.2227   29.5851   16.6877   29.6247   15.0643   31.1213   23.4149   33.2365   23.9420   10.6254    0.0490
  3.560   31.9794   27.1761   31.5602   26.8177   29.1440   17.8569   29.2418   16.0794   29.8834   24.8431   32.2376   25.7367   11.6879    0.0576
  3.580   30.3781   28.5739   29.9975   28.1024   28.5594   18.9372   28.7890   16.9685   28.4221   25.9891   30.9503   27.3528   12.6404    0.0668
  3.600   28.6366   29.6241   28.3337   29.0459   27.8621   19.9045   28.3238   17.7473   26.8407   26.8018   29.4373   28.7272   13.4512    0.0767
  3.620   26.8639   30.3373   26.6762   29.6744   27.0826   20.7482   27.8765   18.4575   25.2483   27.2788   27.7722   29.8292   14.0979    0.0871
  3.640   25.1376   30.7605   25.0940   30.0499   26.2449   21.4652   27.4427   19.1413   23.7358   27.4580   26.0193   30.6573   14.5681    0.0978
  3.660   23.4960   30.9503   23.6100   30.2401   25.3666   22.0530   26.9946   19.8198   22.3632   27.4001   24.2219   31.2231   14.8594    0.1087
  3.680   21.9484   30.9505   22.2131   30.2915   24.4646   22.5036   26.5028   20.4861   21.1579   27.1694   22.4049   31.5312   14.9781    0.1197
  3.700   20.4937   30.7832   20.8833   30.2192   23.5635   22.8047   25.9540   21.1147   20.1245   26.8197   20.5934   31.5675   14.9384    0.1307
  3.720   19.1379   30.4537   19.6131   30.0140   22.7022   22.9500   25.3559   21.6785   19.2570   26.3900   18.8347   31.3082   14.7619    0.1416
  3.740   17.9013   29.9637   18.4177   29.6602   21.9288   22.9507   24.7306   22.1607   18.5482   25.9082   17.2060   30.7443   14.4759    0.1522
  3.760   16.8163   29.3244   17.3316   29.1528   21.2875   22.8426   24.1041   22.5596   17.9930   25.3959   15.7994   29.9064   14.1128    0.1626
  3.780   15.9169   28.5633   16.3959   28.5063   20.8033   22.6805   23.4977   22.8861   17.5898   24.8736   14.6911   28.8701   13.7073    0.1726
  3.800   15.2281   27.7228   15.6463   27.7543   20.4743   22.5251   22.9218   23.1576   17.3383   24.3647   13.9166   27.7380   13.2944    0.1824
  3.820   14.7587   26.8527   15.1043   26.9432   20.2734   22.4278   22.3755   23.3906   17.2357   23.8988   13.4656   26.6115   12.9055    0.1919
  3.840   14.5005   26.0018   14.7732   26.1236   20.1567   22.4224   21.8491   23.5932   17.2683   23.5111   13.2943   25.5705   12.5661    0.2011
  3.860   14.4320   25.2098   14.6400   25.3415   20.0724   22.5200   21.3319   23.7612   17.4065   23.2339   13.3432   24.6661   12.2925    0.2102
  3.880   14.5251   24.5042   14.6803   24.6320   19.9713   22.7081   20.8224   23.8791   17.6063   23.0857   13.5497   23.9229   12.0915    0.2191
  3.900   14.7517   23.9014   14.8659   24.0180   19.8179   22.9529   20.3348   23.9293   17.8189   23.0619   13.8575   23.3443   11.9595    0.2278
  3.920   15.0873   23.4111   15.1706   23.5133   19.6001   23.2103   19.8989   23.9043   18.0068   23.1360   14.2206   22.9192   11.8851    0.2366
  3.940   15.5099   23.0405   15.5700   23.1275   19.3301   23.4401   19.5504   23.8170   18.1533   23.2703   14.6046   22.6289   11.8507    0.2453
  3.960   15.9966   22.7953   16.0401   22.8667   19.0354   23.6191   19.3159   23.7019   18.2629   23.4311   14.9839   22.4494   11.8364    0.2540
  3.980   16.5218   22.6757   16.5547   22.7317   18.7437   23.7416   19.1990   23.6049   18.3510   23.5965   15.3415   22.3518   11.8234    0.2627
  4.000   17.0606   22.6720   17.0892   22.7142   18.4758   23.8100   19.1774   23.5652   18.4354   23.7543   15.6736   22.3017   11.7972    0.2714
  4.020   17.5961   22.7641   17.6268   22.7962   18.2486   23.8260   19.2151   23.5998   18.5351   23.8960   15.9945   22.2658   11.7502    0.2800
  4.040   18.1271   22.9274   18.1649   22.9561   18.0845   23.7915   19.2805   23.7016   18.6758   24.0172   16.3368   22.2234   11.6839    0.2886
  4.060   18.6695   23.1439   18.7158   23.1784   18.0127   23.7178   19.3613   23.8508   18.8920   24.1253   16.7409   22.1758   11.6093    0.2971
  4.080   19.2496   23.4123   19.3010   23.4625   18.0619   23.6328   19.4652   24.0325   19.2191   24.2487   17.2426   22.1463   11.5459    0.3056
  4.100   19.8925   23.7525   19.9407   23.8259   18.2490   23.5799   19.6092   24.2483   19.6790   24.4376   17.8633   22.1738   11.5195    0.3141
  4.120   20.6099   24.2014   20.6432   24.3011   18.5705   23.6100   19.8053   24.5172   20.2678   24.7537   18.6074   22.3041   11.5589    0.3226
  4.140   21.3921   24.8029   21.3980   24.9265   19.0012   23.7694   20.0499   24.8668   20.9529   25.2546   19.4616   22.5831   11.6922    0.3312
  4.160   22.2077   25.5955   22.1756   25.7351   19.5004   24.0895   20.3229   25.3208   21.6793   25.9794   20.3969   23.0505   11.9439    0.3399
  4.180   23.0106   26.6013   22.9338   26.7453   20.0220   24.5821   20.5941   25.8902   22.3831   26.9415   21.3726   23.7333   12.3323    0.3490
  4.200   23.7501   27.8221   23.6276   27.9572   20.5249   25.2419   20.8325   26.5703   23.0052   28.1299   22.3444   24.6433   12.8702    0.3585
  4.220   24.3835   29.2405   24.2197   29.3548   20.9797   26.0538   21.0154   27.3437   23.5013   29.5167   23.2720   25.7788   13.5658    0.3684
  4.240   24.8853   30.8288   24.6887   30.9146   21.3690   27.0014   21.1341   28.1867   23.8466   31.0692   24.1251   27.1316   14.4255    0.3790
  4.260   25.2501   32.5643   25.0296   32.6199   21.6835   28.0730   21.1963   29.0791   24.0326   32.7620   24.8819   28.6956   15.4562    0.3904
  4.280   25.4821   34.4438   25.2434   34.4724   21.9167   29.2646   21.2214   30.0156   24.0565   34.5866   25.5231   30.4741   16.6673    0.4026
  4.300   25.5748   36.4872   25.3177   36.4937   22.0587   30.5801   21.2274   31.0123   23.9053   36.5504   26.0202   32.4789   18.0700    0.4159
  4.320   25.4933   38.7238   25.2113   38.7104   22.0904   32.0278   21.2153   32.1009   23.5434   38.6652   26.3278   34.7226   19.6752    0.4304
  4.340   25.1711   41.1678   24.8533   41.1303   21.9789   33.6134   21.1626   33.3143   22.9102   40.9281   26.3812   37.2054   21.4890    0.4462
  4.360   24.5252   43.8007   24.1605   43.7247   21.6795   35.3294   21.0285   34.6713   21.9326   43.3051   26.1047   39.9023   23.5079    0.4635
  4.380   23.4775   46.5671   23.0611   46.4275   21.1451   37.1474   20.7673   36.1725   20.5440   45.7244   25.4259   42.7583   25.7133    0.4824
  4.400   21.9696   49.3843   21.5112   49.1486   20.3395   39.0191   20.3362   37.8055   18.7054   48.0829   24.2907   45.6922   28.0684    0.5030
  4.420   19.9694   52.1535   19.4978   51.7918   19.2468   40.8860   19.6948   39.5499   16.4183   50.2632   22.6733   48.6092   30.5156    0.5254
  4.440   17.4718   54.7689   17.0325   54.2658   17.8705   42.6935   18.8026   41.3769   13.7269   52.1549   20.5761   51.4164   32.9781    0.5496
  4.460   14.5003   57.1256   14.1453   56.4889   16.2231   44.3979   17.6208   43.2436   10.7082   53.6731   18.0192   54.0332   35.3628    0.5756
  4.480   11.1046   59.1305   10.8777   58.3918   14.3155   45.9620   16.1207   45.0922    7.4533   54.7677   15.0278   56.3900   37.5665    0.6033
  4.500    7.3502   60.7104    7.2761   59.9169   12.1558   47.3438   14.2884   46.8557    4.0483   55.4192   11.6270   58.4171   39.4841    0.6323
  4.520    3.3065   61.8106    3.3858   61.0116    9.7601   48.4902   12.1264   48.4619    0.5643   55.6241    7.8504   60.0363   41.0171    0.6624
  4.540   -0.9607   62.3838   -0.7473   61.6179    7.1647   49.3426    9.6538   49.8365   -2.9407   55.3800    3.7514   61.1624   42.0835    0.6933
  4.560   -5.3822   62.3779   -5.0623   61.6645    4.4299   49.8502    6.9102   50.9053   -6.4089   54.6758   -0.5891   61.7129   42.6262    0.7247
  4.580   -9.8681   61.7335   -9.4634   61.0743    1.6368   49.9820    3.9595   51.6016   -9.7662   53.4950   -5.0596   61.6189   42.6191    0.7560
  4.600  -14.2878   60.4006  -13.8055   59.7907   -1.1232   49.7385    0.8900   51.8795  -12.9084   51.8339   -9.5183   60.8408   42.0697    0.7869
  4.620  -18.4720   58.3743  -17.9057   57.8156   -3.7649   49.1562   -2.1971   51.7284  -15.7074   49.7322  -13.8055   59.3885   41.0189    0.8171
  4.640  -22.2445   55.7225  -21.5843   55.2321   -6.2309   48.3009   -5.2107   51.1767  -18.0436   47.2928  -17.7736   57.3298   39.5358    0.8461
  4.660  -25.4692   52.5794  -24.7150   52.1895   -8.5039   47.2448   -8.0914   50.2753  -19.8498   44.6719  -21.3171   54.7742   37.7102    0.8738
  4.680  -28.0771   49.1090  -27.2488   48.8572  -10.5982   46.0399  -10.8115   49.0688  -21.1352   42.0379  -24.3819   51.8386   35.6433    0.9000
  4.700  -30.0587   45.4650  -29.1979   45.3807  -12.5346   44.7066  -13.3521   47.5793  -21.9760   39.5272  -26.9460   48.6217   33.4381    0.9246
  4.720  -31.4391   41.7750  -30.6013   41.8662  -14.3164   43.2454  -15.6769   45.8162  -22.4820   37.2195  -28.9938   45.2050   31.1903    0.9475
  4.740  -32.2588   38.1443  -31.4991   38.3923  -15.9247   41.6618  -17.7272   43.8053  -22.7624   35.1403  -30.5060   41.6715   28.9825    0.9688
  4.760  -32.5705   34.6647  -31.9288   35.0290  -17.3349   39.9834  -19.4447   41.6088  -22.9068   33.2787  -31.4723   38.1212   26.8791    0.9886
  4.780  -32.4430   31.4139  -31.9361   31.8450  -18.5401   38.2565  -20.8023   39.3192  -22.9814   31.6052  -31.9120   34.6664   24.9254    1.0069
  4.800  -31.9588   28.4476  -31.5820   28.9000  -19.5623   36.5250  -21.8202   37.0305  -23.0335   30.0803  -31.8828   31.4115   23.1478    1.0239
  4.820  -31.2054   25.7951  -30.9403   26.2354  -20.4423   34.8075  -22.5547   34.8070  -23.0926   28.6572  -31.4722   28.4322   21.5564    1.0398
  4.840  -30.2642   23.4613  -30.0878   23.8696  -21.2157   33.0901  -23.0694   32.6710  -23.1674   27.2846  -30.7780   25.7663   20.1487    1.0546
  4.860  -29.2043   21.4340  -29.0948   21.8008  -21.8900   31.3390  -23.4087   30.6127  -23.2420   25.9154  -29.8908   23.4189   18.9142    1.0685
  4.880  -28.0816   19.6913  -28.0209   20.0134  -22.4379   29.5266  -23.5866   28.6145  -23.2793   24.5205  -28.8840   21.3733   17.8383    1.0816
  4.900  -26.9403   18.2062  -26.9136   18.4837  -22.8109   27.6542  -23.5949   26.6726  -23.2330   23.0977  -27.8123   19.6022   16.9063    1.0940
  4.920  -25.8149   16.9490  -25.8101   17.1841  -22.9643   25.7593  -23.4224   24.8056  -23.0656   21.6728  -26.7156   18.0761   16.1052    1.1059
  4.940  -24.7319   15.8885  -24.7387   16.0847  -22.8795   23.9032  -23.0717   23.0477  -22.7613   20.2881  -25.6227   16.7661   15.4245    1.1172
  4.960  -23.7098   14.9921  -23.7199   15.1549  -22.5707   22.1505  -22.5648   21.4336  -22.3297   18.9860  -24.5556   15.6447   14.8559    1.1281
  4.980  -22.7590   14.2272  -22.7667   14.3630  -22.0774   20.5501  -21.9382   19.9868  -21.7987   17.7964  -23.5305   14.6845   14.3925    1.1387
  5.000  -21.8816   13.5628  -21.8840   13.6781  -21.4504   19.1281  -21.2321   18.7148  -21.2025   16.7311  -22.5571   13.8583   14.0276    1.1490
  5.020  -21.0713   12.9721  -21.0679   13.0724  -20.7383   17.8903  -20.4819   17.6119  -20.5713   15.7868  -21.6382   13.1405   13.7549    1.1591
  5.040  -20.3160   12.4358  -20.3074   12.5244  -19.9813   16.8299  -19.7149   16.6666  -19.9264   14.9525  -20.7699   12.5102   13.5694    1.1691
  5.060  -19.6015   11.9430  -19.5883   12.0220  -19.2113   15.9338  -18.9516   15.8657  -19.2813   14.2156  -19.9447   11.9530   13.4684    1.1790
  5.080  -18.9157   11.4906  -18.8974   11.5611  -18.4542   15.1858  -18.2093   15.1965  -18.6440   13.5645  -19.1557   11.4616   13.4528    1.1889
  5.100  -18.2507   11.0798  -18.2261   11.1435  -17.7303   14.5661  -17.5037   14.6452  -18.0193   12.9890  -18.3985   11.0321   13.5274    1.1988
  5.120  -17.6026   10.7135  -17.5707   10.7731  -17.0531   14.0525  -16.8482   14.1952  -17.4095   12.4799  -17.6712   10.6623   13.7005    1.2089
  5.140  -16.9708   10.3952  -16.9314   10.4540  -16.4284   13.6228  -16.2514   13.8279  -16.8137   12.0302  -16.9736   10.3511   13.9814    1.2192
  5.160  -16.3572   10.1282  -16.3115   10.1895  -15.8551   13.2586  -15.7170   13.5249  -16.2296   11.6368  -16.3074   10.0980   14.3773    1.2297
  5.180  -15.7666    9.9148  -15.7170    9.9814  -15.3293   12.9477  -15.2443   13.2701  -15.6559   11.3010  -15.6773    9.9025   14.8910    1.2407
  5.200  -15.2061    9.7558  -15.1559    9.8292  -14.8477   12.6824  -14.8304   13.0506  -15.0954   11.0271  -15.0909    9.7615   15.5173    1.2521
  5.220  -14.6844    9.6491  -14.6371    9.7292  -14.4098   12.4566  -14.4721   12.8559  -14.5558   10.8188  -14.5559    9.6673   16.2429    1.2640
  5.240  -14.2109    9.5887  -14.1693    9.6740  -14.0157   12.2637  -14.1663   12.6766  -14.0490   10.6766  -14.0771    9.6075   17.0469    1.2765
  5.260  -13.7931    9.5647  -13.7585    9.6529  -13.6648   12.0964  -13.9095   12.5031  -13.5881   10.5961  -13.6530    9.5687   17.9020    1.2897
  5.280  -13.4347    9.5641  -13.4074    9.6534  -13.3550   11.9480  -13.6958   12.3258  -13.1859   10.5679  -13.2765    9.5405   18.7785    1.3035
  5.300  -13.1344    9.5739  -13.1139    9.6632  -13.0834   11.8139  -13.5163   12.1375  -12.8523   10.5781  -12.9384    9.5192   19.6466    1.3179
  5.320  -12.8867    9.5836  -12.8732    9.6727  -12.8489   11.6909  -13.3611   11.9353  -12.5925   10.6094  -12.6326    9.5069   20.4791    1.3330
  5.340  -12.6848    9.5867  -12.6791    9.6754  -12.6520   11.5758  -13.2229   11.7203  -12.4062   10.6443  -12.3587    9.5070   21.2527    1.3486
  5.360  -12.5232    9.5798  -12.5270    9.6673  -12.4949   11.4627  -13.0982   11.4945  -12.2888   10.6671  -12.1208    9.5204   21.9488    1.3648
  5.380  -12.3984    9.5607  -12.4137    9.6446  -12.3785   11.3424  -12.9864   11.2570  -12.2337   10.6641  -11.9240    9.5439   22.5527    1.3813
  5.400  -12.3091    9.5261  -12.3371    9.6022  -12.2998   11.2036  -12.8856   11.0040  -12.2328   10.6223  -11.7726    9.5712   23.0530    1.3983
  5.420  -12.2544    9.4701  -12.2939    9.5328  -12.2509   11.0351  -12.7904   10.7302  -12.2748   10.5284  -11.6693    9.5938   23.4408    1.4155
  5.440  -12.2308    9.3841  -12.2774    9.4277  -12.2199   10.8289  -12.6920   10.4328  -12.3430   10.3700  -11.6150    9.6013   23.7093    1.4329
  5.460  -12.2302    9.2585  -12.2761    9.2799  -12.1920   10.5811  -12.5797   10.1129  -12.4139   10.1407  -11.6075    9.5804   23.8532    1.4505
  5.480  -12.2390    9.0871  -12.2749    9.0874  -12.1515   10.2935  -12.4440    9.7764  -12.4612    9.8442  -11.6388    9.5169   23.8690    1.4680
  5.500  -12.2411    8.8700  -12.2594    8.8551  -12.0847    9.9732  -12.2788    9.4327  -12.4622    9.4958  -11.6936    9.3994   23.7552    1.4855
  5.520  -12.2228    8.6140  -12.2195    8.5928  -11.9816    9.6319  -12.0834    9.0919  -12.4043    9.1181  -11.7527    9.2239   23.5127    1.5027
  5.540  -12.1751    8.3296  -12.1509    8.3112  -11.8377    9.2830  -11.8612    8.7615  -12.2860    8.7345  -11.7970    8.9946   23.1458    1.5198
  5.560  -12.0938    8.0273  -12.0535    8.0188  -11.6541    8.9393  -11.6166    8.4450  -12.1145    8.3632  -11.8121    8.7221   22.6641    1.5364
  5.580  -11.9779    7.7162  -11.9281    7.7213  -11.4357    8.6100  -11.3522    8.1425  -11.9014    8.0154  -11.7898    8.4193   22.0850    1.5526
  5.600  -11.8278    7.4040  -11.7747    7.4227  -11.1887    8.3002  -11.0674    7.8538  -11.6578    7.6954  -11.7270    8.0986   21.4360    1.5684
  5.620  -11.6442    7.0972  -11.5927    7.1272  -10.9176    8.0115  -10.7592    7.5806  -11.3922    7.4026  -11.6234    7.7699   20.7576    1.5837
  5.640  -11.4290    6.8020  -11.3811    6.8401  -10.6240    7.7444  -10.4242    7.3283  -11.1082    7.1351  -11.4799    7.4416   20.1032    1.5984
  5.660  -11.1841    6.5241  -11.1401    6.5675  -10.3069    7.5007  -10.0612    7.1051  -10.8061    6.8922  -11.2977    7.1209   19.5383    1.6128
  5.680  -10.9125    6.2691  -10.8714    6.3164   -9.9646    7.2861   -9.6725    6.9209  -10.4849    6.6765  -11.0784    6.8154   19.1354    1.6269
  5.700  -10.6178    6.0427  -10.5789    6.0940   -9.5979    7.1089   -9.2645    6.7855  -10.1451    6.4940  -10.8250    6.5326   18.9670    1.6408
  5.720  -10.3056    5.8499  -10.2690    5.9065   -9.2119    6.9790   -8.8473    6.7065   -9.7907    6.3518  -10.5425    6.2804   19.0957    1.6548
  5.740   -9.9830    5.6950   -9.9507    5.7580   -8.8161    6.9049   -8.4338    6.6886   -9.4297    6.2559  -10.2383    6.0650   19.5648    1.6692
  5.760   -9.6588    5.5797   -9.6338    5.6489   -8.4234    6.8916   -8.0382    6.7322   -9.0722    6.2092   -9.9218    5.8902   20.3895    1.6842
  5.780   -9.3420    5.5029   -9.3279    5.5765   -8.0482    6.9395   -7.6752    6.8334   -8.7292    6.2108   -9.6030    5.7565   21.5518    1.7000
  5.800   -9.0410    5.4607   -9.0405    5.5344   -7.7045    7.0450   -7.3583    6.9835   -8.4101    6.2565   -9.2910    5.6614   22.9994    1.7169
  5.820   -8.7620    5.4467   -8.7762    5.5144   -7.4046    7.2005   -7.0976    7.1695   -8.1221    6.3404   -8.9933    5.5999   24.6493    1.7351
  5.840   -8.5089    5.4531   -8.5355    5.5078   -7.1582    7.3956   -6.8977    7.3753   -7.8700    6.4561   -8.7153    5.5657   26.3959    1.7545
  5.860   -8.2825    5.4714   -8.3154    5.5073   -6.9722    7.6188   -6.7572    7.5856   -7.6580    6.5982   -8.4601    5.5512   28.1228    1.7751
  5.880   -8.0803    5.4941   -8.1105    5.5085   -6.8509    7.8577   -6.6694    7.7887   -7.4908    6.7612   -8.2281    5.5486   29.7145    1.7970
  5.900   -7.8974    5.5156   -7.9153    5.5105   -6.7974    8.0992   -6.6270    7.9780   -7.3738    6.9380   -8.0169    5.5506   31.0691    1.8198
  5.920   -7.7275    5.5338   -7.7255    5.5153   -6.8127    8.3286   -6.6250    8.1504   -7.3121    7.1180   -7.8217    5.5515   32.1081    1.8434
  5.940   -7.5655    5.5497   -7.5391    5.5263   -6.8942    8.5284   -6.6613    8.3020   -7.3078    7.2871   -7.6357    5.5484   32.7821    1.8665
  5.960   -7.4083    5.5662   -7.3569    5.5469   -7.0328    8.6801   -6.7342    8.4258   -7.3570    7.4291   -7.4516    5.5414   33.0733    1.8949
  5.980   -7.2553    5.5865   -7.1813    5.5793   -7.2110    8.7678   -6.8384    8.5121   -7.4489    7.5293   -7.2627    5.5345   32.9942    1.9040
